Potential applied (V);Time (s);WE(1).Current (A);WE(1).Potential (V);Scan;Index;Q+;Q-;Current range
-0,097503662109375;6,50876998356694;-2,764892578125E-06;-0,09796142578125;1;1;0,000106706659495831;-1,80224537849426E-05;1 µA
-0,095062255859375;6,55759798344366;-2,659912109375E-06;-0,0955810546875;1;2;0,000106706659495831;-1,80224537849426E-05;1 µA
-0,092620849609375;6,60642598332038;-2,5665283203125E-06;-0,0931396484375;1;3;0,000106706659495831;-1,80224537849426E-05;1 µA
-0,090179443359375;6,6552539831971;-2,48077392578125E-06;-0,090606689453125;1;4;0,000106706659495831;-1,80224537849426E-05;1 µA
-0,087738037109375;6,70408198307382;-2,39898681640625E-06;-0,08819580078125;1;5;0,000106706659495831;-1,80224537849426E-05;1 µA
-0,085296630859375;6,75290998295054;-2,3187255859375E-06;-0,085693359375;1;6;0,000106706659495831;-1,80224537849426E-05;1 µA
-0,082855224609375;6,80173798282726;-2,24151611328125E-06;-0,083282470703125;1;7;0,000106706659495831;-1,80224537849426E-05;1 µA
-0,080413818359375;6,85056598270398;-2,17498779296875E-06;-0,080780029296875;1;8;0,000106706659495831;-1,80224537849426E-05;1 µA
-0,077972412109375;6,8993939825807;-2,09747314453125E-06;-0,078460693359375;1;9;0,000106706659495831;-1,80224537849426E-05;1 µA
-0,075531005859375;6,94822198245743;-2,02606201171875E-06;-0,075927734375;1;10;0,000106706659495831;-1,80224537849426E-05;1 µA
-0,073089599609375;6,99704998233415;-1,9610595703125E-06;-0,073455810546875;1;11;0,000106706659495831;-1,80224537849426E-05;1 µA
-0,070648193359375;7,04587798221087;-1,89697265625E-06;-0,07098388671875;1;12;0,000106706659495831;-1,80224537849426E-05;1 µA
-0,068206787109375;7,09470598208759;-1,83380126953125E-06;-0,068603515625;1;13;0,000106706659495831;-1,80224537849426E-05;1 µA
-0,065765380859375;7,14353398196431;-1,778564453125E-06;-0,06610107421875;1;14;0,000106706659495831;-1,80224537849426E-05;1 µA
-0,063323974609375;7,19236198184103;-1,7193603515625E-06;-0,06365966796875;1;15;0,000106706659495831;-1,80224537849426E-05;1 µA
-0,060882568359375;7,24118998171775;-1,6650390625E-06;-0,061248779296875;1;16;0,000106706659495831;-1,80224537849426E-05;1 µA
-0,058441162109375;7,29001798159447;-1,614990234375E-06;-0,058837890625;1;17;0,000106706659495831;-1,80224537849426E-05;1 µA
-0,055999755859375;7,3388459814712;-1,56341552734375E-06;-0,056365966796875;1;18;0,000106706659495831;-1,80224537849426E-05;1 µA
-0,053558349609375;7,38767398134792;-1,517333984375E-06;-0,05401611328125;1;19;0,000106706659495831;-1,80224537849426E-05;1 µA
-0,051116943359375;7,43650198122464;-1,47064208984375E-06;-0,051483154296875;1;20;0,000106706659495831;-1,80224537849426E-05;1 µA
-0,048675537109375;7,48532998110136;-1,4251708984375E-06;-0,0488372802734375;1;21;0,000106706659495831;-1,80224537849426E-05;1 µA
-0,046234130859375;7,53415798097808;-1,3800048828125E-06;-0,0464202880859375;1;22;0,000106706659495831;-1,80224537849426E-05;1 µA
-0,043792724609375;7,5829859808548;-1,339111328125E-06;-0,0439361572265625;1;23;0,000106706659495831;-1,80224537849426E-05;1 µA
-0,041351318359375;7,63181398073152;-1,2969970703125E-06;-0,0415313720703125;1;24;0,000106706659495831;-1,80224537849426E-05;1 µA
-0,038909912109375;7,68064198060824;-1,2542724609375E-06;-0,039044189453125;1;25;0,000106706659495831;-1,80224537849426E-05;1 µA
-0,036468505859375;7,72946998048496;-1,21856689453125E-06;-0,036590576171875;1;26;0,000106706659495831;-1,80224537849426E-05;1 µA
-0,034027099609375;7,77829798036169;-1,177978515625E-06;-0,034197998046875;1;27;0,000106706659495831;-1,80224537849426E-05;1 µA
-0,031585693359375;7,82712598023841;-1,14288330078125E-06;-0,0317413330078125;1;28;0,000106706659495831;-1,80224537849426E-05;1 µA
-0,029144287109375;7,87595398011513;-1,10931396484375E-06;-0,0292510986328125;1;29;0,000106706659495831;-1,80224537849426E-05;1 µA
-0,026702880859375;7,92478197999185;-1,072998046875E-06;-0,02685546875;1;30;0,000106706659495831;-1,80224537849426E-05;1 µA
-0,024261474609375;7,97360997986857;-1,043701171875E-06;-0,0243804931640625;1;31;0,000106706659495831;-1,80224537849426E-05;1 µA
-0,021820068359375;8,02243797974529;-1,0137939453125E-06;-0,021990966796875;1;32;0,000106706659495831;-1,80224537849426E-05;1 µA
-0,019378662109375;8,07126597962201;-9,8175048828125E-07;-0,019500732421875;1;33;0,000106706659495831;-1,80224537849426E-05;1 µA
-0,016937255859375;8,12009397949873;-9,5550537109375E-07;-0,01705322265625;1;34;0,000106706659495831;-1,80224537849426E-05;1 µA
-0,014495849609375;8,16892197937545;-9,26513671875E-07;-0,0146270751953125;1;35;0,000106706659495831;-1,80224537849426E-05;1 µA
-0,012054443359375;8,21774997925218;-9,0057373046875E-07;-0,0121856689453125;1;36;0,000106706659495831;-1,80224537849426E-05;1 µA
-0,009613037109375;8,2665779791289;-8,75244140625E-07;-0,009735107421875;1;37;0,000106706659495831;-1,80224537849426E-05;1 µA
-0,007171630859375;8,31540597900562;-8,477783203125E-07;-0,007293701171875;1;38;0,000106706659495831;-1,80224537849426E-05;1 µA
-0,004730224609375;8,36423397888234;-8,2305908203125E-07;-0,00482788085937499;1;39;0,000106706659495831;-1,80224537849426E-05;1 µA
-0,002288818359375;8,41306197875906;-7,977294921875E-07;-0,002410888671875;1;40;0,000106706659495831;-1,80224537849426E-05;1 µA
0,000152587890625;8,46188997863578;-7,708740234375E-07;6,103515625E-05;1;41;0,000106706659495831;-1,80224537849426E-05;1 µA
0,002593994140625;8,5107179785125;-7,4859619140625E-07;0,0024871826171875;1;42;0,000106706659495831;-1,80224537849426E-05;1 µA
0,005035400390625;8,55954597838922;-7,2509765625E-07;0,0049285888671875;1;43;0,000106706659495831;-1,80224537849426E-05;1 µA
0,007476806640625;8,60837397826594;-7,0343017578125E-07;0,007366943359375;1;44;0,000106706659495831;-1,80224537849426E-05;1 µA
0,009918212890625;8,65720197814267;-6,8511962890625E-07;0,0098419189453125;1;45;0,000106706659495831;-1,80224537849426E-05;1 µA
0,012359619140625;8,70602997801939;-6,6497802734375E-07;0,012274169921875;1;46;0,000106706659495831;-1,80224537849426E-05;1 µA
0,014801025390625;8,75485797789611;-6,4666748046875E-07;0,014697265625;1;47;0,000106706659495831;-1,80224537849426E-05;1 µA
0,017242431640625;8,80368597777283;-6,2896728515625E-07;0,0171539306640625;1;48;0,000106706659495831;-1,80224537849426E-05;1 µA
0,019683837890625;8,85251397764955;-6,121826171875E-07;0,0196258544921875;1;49;0,000106706659495831;-1,80224537849426E-05;1 µA
0,022125244140625;8,90134197752627;-5,9417724609375E-07;0,0220733642578125;1;50;0,000106706659495831;-1,80224537849426E-05;1 µA
0,024566650390625;8,95016997740299;-5,7769775390625E-07;0,0245086669921875;1;51;0,000106706659495831;-1,80224537849426E-05;1 µA
0,027008056640625;8,99899797727971;-5,5999755859375E-07;0,0269683837890625;1;52;0,000106706659495831;-1,80224537849426E-05;1 µA
0,029449462890625;9,04782597715644;-5,4168701171875E-07;0,02938232421875;1;53;0,000106706659495831;-1,80224537849426E-05;1 µA
0,031890869140625;9,09665397703316;-5,2825927734375E-07;0,0318389892578125;1;54;0,000106706659495831;-1,80224537849426E-05;1 µA
0,034332275390625;9,14548197690988;-5,0933837890625E-07;0,0342864990234375;1;55;0,000106706659495831;-1,80224537849426E-05;1 µA
0,036773681640625;9,1943099767866;-4,94384765625E-07;0,036737060546875;1;56;0,000106706659495831;-1,80224537849426E-05;1 µA
0,039215087890625;9,24313797666332;-4,803466796875E-07;0,0391754150390625;1;57;0,000106706659495831;-1,80224537849426E-05;1 µA
0,041656494140625;9,29196597654004;-4,6478271484375E-07;0,0415802001953125;1;58;0,000106706659495831;-1,80224537849426E-05;1 µA
0,044097900390625;9,34079397641676;-4,5318603515625E-07;0,0440155029296875;1;59;0,000106706659495831;-1,80224537849426E-05;1 µA
0,046539306640625;9,38962197629348;-4,3914794921875E-07;0,046453857421875;1;60;0,000106706659495831;-1,80224537849426E-05;1 µA
0,048980712890625;9,4384499761702;-4,27520751953125E-07;0,0488555908203125;1;61;0,000106706659495831;-1,80224537849426E-05;100 nA
0,051422119140625;9,48727797604693;-4,1595458984375E-07;0,051055908203125;1;62;0,000106706659495831;-1,80224537849426E-05;100 nA
0,053863525390625;9,53610597592365;-4,044189453125E-07;0,053466796875;1;63;0,000106706659495831;-1,80224537849426E-05;100 nA
0,056304931640625;9,58493397580037;-3,9349365234375E-07;0,055999755859375;1;64;0,000106706659495831;-1,80224537849426E-05;100 nA
0,058746337890625;9,63376197567709;-3,819580078125E-07;0,05841064453125;1;65;0,000106706659495831;-1,80224537849426E-05;100 nA
0,061187744140625;9,68258997555381;-3,71246337890625E-07;0,060943603515625;1;66;0,000106706659495831;-1,80224537849426E-05;100 nA
0,063629150390625;9,73141797543053;-3,57757568359375E-07;0,06329345703125;1;67;0,000106706659495831;-1,80224537849426E-05;100 nA
0,066070556640625;9,78024597530725;-3,4625244140625E-07;0,065704345703125;1;68;0,000106706659495831;-1,80224537849426E-05;100 nA
0,068511962890625;9,82907397518397;-3,358154296875E-07;0,068267822265625;1;69;0,000106706659495831;-1,80224537849426E-05;100 nA
0,070953369140625;9,87790197506069;-3,2476806640625E-07;0,070648193359375;1;70;0,000106706659495831;-1,80224537849426E-05;100 nA
0,073394775390625;9,92672997493742;-3,1475830078125E-07;0,0731201171875;1;71;0,000106706659495831;-1,80224537849426E-05;100 nA
0,075836181640625;9,97555797481414;-3,0517578125E-07;0,0755615234375;1;72;0,000106706659495831;-1,80224537849426E-05;100 nA
0,078277587890625;10,0243859746909;-2,93975830078125E-07;0,07806396484375;1;73;0,000106706659495831;-1,80224537849426E-05;100 nA
0,080718994140625;10,0732139745676;-2,8680419921875E-07;0,080474853515625;1;74;0,000106706659495831;-1,80224537849426E-05;100 nA
0,083160400390625;10,1220419744443;-2,78106689453125E-07;0,082855224609375;1;75;0,000106706659495831;-1,80224537849426E-05;100 nA
0,085601806640625;10,170869974321;-2,69500732421875E-07;0,08544921875;1;76;0,000106706659495831;-1,80224537849426E-05;100 nA
0,088043212890625;10,2196979741977;-2,62298583984375E-07;0,087860107421875;1;77;0,000106706659495831;-1,80224537849426E-05;100 nA
0,090484619140625;10,2685259740745;-2,5299072265625E-07;0,09033203125;1;78;0,000106706659495831;-1,80224537849426E-05;100 nA
0,092926025390625;10,3173539739512;-2,4554443359375E-07;0,092742919921875;1;79;0,000106706659495831;-1,80224537849426E-05;100 nA
0,095367431640625;10,3661819738279;-2,38861083984375E-07;0,095184326171875;1;80;0,000106706659495831;-1,80224537849426E-05;100 nA
0,097808837890625;10,4150099737046;-2,314453125E-07;0,097625732421875;1;81;0,000106706659495831;-1,80224537849426E-05;100 nA
0,100250244140625;10,4638379735813;-2,2344970703125E-07;0,10009765625;1;82;0,000106706659495831;-1,80224537849426E-05;100 nA
0,102691650390625;10,5126659734581;-2,15545654296875E-07;0,1025390625;1;83;0,000106706659495831;-1,80224537849426E-05;100 nA
0,105133056640625;10,5614939733348;-2,0684814453125E-07;0,105010986328125;1;84;0,000106706659495831;-1,80224537849426E-05;100 nA
0,107574462890625;10,6103219732115;-1,9940185546875E-07;0,107391357421875;1;85;0,000106706659495831;-1,80224537849426E-05;100 nA
0,110015869140625;10,6591499730882;-1,91864013671875E-07;0,109832763671875;1;86;0,000106706659495831;-1,80224537849426E-05;100 nA
0,112457275390625;10,707977972965;-1,84051513671875E-07;0,11236572265625;1;87;0,000106706659495831;-1,80224537849426E-05;100 nA
0,114898681640625;10,7568059728417;-1,78619384765625E-07;0,11474609375;1;88;0,000106706659495831;-1,80224537849426E-05;100 nA
0,117340087890625;10,8056339727184;-1,7181396484375E-07;0,117279052734375;1;89;0,000106706659495831;-1,80224537849426E-05;100 nA
0,119781494140625;10,8544619725951;-1,66534423828125E-07;0,119659423828125;1;90;0,000106706659495831;-1,80224537849426E-05;100 nA
0,122222900390625;10,9032899724718;-1,607666015625E-07;0,122161865234375;1;91;0,000106706659495831;-1,80224537849426E-05;100 nA
0,124664306640625;10,9521179723486;-1,54815673828125E-07;0,12457275390625;1;92;0,000106706659495831;-1,80224537849426E-05;100 nA
0,127105712890625;11,0009459722253;-1,4776611328125E-07;0,12701416015625;1;93;0,000106706659495831;-1,80224537849426E-05;100 nA
0,129547119140625;11,049773972102;-1,42791748046875E-07;0,129486083984375;1;94;0,000106706659495831;-1,80224537849426E-05;100 nA
0,131988525390625;11,0986019719787;-1,36199951171875E-07;0,131927490234375;1;95;0,000106706659495831;-1,80224537849426E-05;100 nA
0,134429931640625;11,1474299718554;-1,27960205078125E-07;0,134368896484375;1;96;0,000106706659495831;-1,80224537849426E-05;100 nA
0,136871337890625;11,1962579717322;-1,212158203125E-07;0,136871337890625;1;97;0,000106706659495831;-1,80224537849426E-05;100 nA
0,139312744140625;11,2450859716089;-1,13128662109375E-07;0,13934326171875;1;98;0,000106706659495831;-1,80224537849426E-05;100 nA
0,141754150390625;11,2939139714856;-1,053466796875E-07;0,1417236328125;1;99;0,000106706659495831;-1,80224537849426E-05;100 nA
0,144195556640625;11,3427419713623;-9,8480224609375E-08;0,1441650390625;1;100;0,000106706659495831;-1,80224537849426E-05;100 nA
0,146636962890625;11,3915699712391;-9,0545654296875E-08;0,146697998046875;1;101;0,000106706659495831;-1,80224537849426E-05;100 nA
0,149078369140625;11,4403979711158;-8,3160400390625E-08;0,1490478515625;1;102;0,000106706659495831;-1,80224537849426E-05;100 nA
0,151519775390625;11,4892259709925;-7,7056884765625E-08;0,151519775390625;1;103;0,000106706659495831;-1,80224537849426E-05;100 nA
0,153961181640625;11,5380539708692;-7,04345703125E-08;0,1539306640625;1;104;0,000106706659495831;-1,80224537849426E-05;100 nA
0,156402587890625;11,5868819707459;-6,2713623046875E-08;0,156402587890625;1;105;0,000106706659495831;-1,80224537849426E-05;100 nA
0,158843994140625;11,6357099706227;-5,6732177734375E-08;0,15887451171875;1;106;0,000106706659495831;-1,80224537849426E-05;100 nA
0,161285400390625;11,6845379704994;-4,656982421875E-08;0,16131591796875;1;107;0,000106706659495831;-1,80224537849426E-05;100 nA
0,163726806640625;11,7333659703761;-3,680419921875E-08;0,1636962890625;1;108;0,000106706659495831;-1,80224537849426E-05;100 nA
0,166168212890625;11,7821939702528;-2,6824951171875E-08;0,1661376953125;1;109;0,000106706659495831;-1,80224537849426E-05;100 nA
0,168609619140625;11,8310219701295;-1,52587890625E-08;0,168670654296875;1;110;0,000106706659495831;-1,80224537849426E-05;100 nA
0,171051025390625;11,8798499700063;-2,13623046875E-09;0,171112060546875;1;111;0,000106706659495831;-1,80224537849426E-05;100 nA
0,173492431640625;11,928677969883;8,9111328125E-09;0,1734619140625;1;112;0,000106706659495831;-1,80224537849426E-05;100 nA
0,175933837890625;11,9775059697597;2,34375E-08;0,176055908203125;1;113;0,000106706659495831;-1,80224537849426E-05;100 nA
0,178375244140625;12,0263339696364;3,6163330078125E-08;0,178558349609375;1;114;0,000106706659495831;-1,80224537849426E-05;100 nA
0,180816650390625;12,0751619695131;5,26123046875E-08;0,180877685546875;1;115;0,000106706659495831;-1,80224537849426E-05;100 nA
0,183258056640625;12,1239899693899;6,89697265625E-08;0,18341064453125;1;116;0,000106706659495831;-1,80224537849426E-05;100 nA
0,185699462890625;12,1728179692666;8,4747314453125E-08;0,18585205078125;1;117;0,000106706659495831;-1,80224537849426E-05;100 nA
0,188140869140625;12,2216459691433;1,0125732421875E-07;0,188323974609375;1;118;0,000106706659495831;-1,80224537849426E-05;100 nA
0,190582275390625;12,27047396902;1,1834716796875E-07;0,1907958984375;1;119;0,000106706659495831;-1,80224537849426E-05;100 nA
0,193023681640625;12,3193019688968;1,35589599609375E-07;0,19329833984375;1;120;0,000106706659495831;-1,80224537849426E-05;100 nA
0,195465087890625;12,3681299687735;1,563720703125E-07;0,195709228515625;1;121;0,000106706659495831;-1,80224537849426E-05;100 nA
0,197906494140625;12,4169579686502;1,77398681640625E-07;0,198150634765625;1;122;0,000106706659495831;-1,80224537849426E-05;100 nA
0,200347900390625;12,4657859685269;1,98638916015625E-07;0,200592041015625;1;123;0,000106706659495831;-1,80224537849426E-05;100 nA
0,202789306640625;12,5146139684036;2,2235107421875E-07;0,20306396484375;1;124;0,000106706659495831;-1,80224537849426E-05;100 nA
0,205230712890625;12,5634419682804;2,47894287109375E-07;0,205535888671875;1;125;0,000106706659495831;-1,80224537849426E-05;100 nA
0,207672119140625;12,6122699681571;2,7294921875E-07;0,2080078125;1;126;0,000106706659495831;-1,80224537849426E-05;100 nA
0,210113525390625;12,6610979680338;2,9986572265625E-07;0,210479736328125;1;127;0,000106706659495831;-1,80224537849426E-05;100 nA
0,212554931640625;12,7099259679105;3,272705078125E-07;0,21295166015625;1;128;0,000106706659495831;-1,80224537849426E-05;100 nA
0,214996337890625;12,7587539677872;3,5394287109375E-07;0,215423583984375;1;129;0,000106706659495831;-1,80224537849426E-05;100 nA
0,217437744140625;12,807581967664;3,826904296875E-07;0,21795654296875;1;130;0,000106706659495831;-1,80224537849426E-05;100 nA
0,219879150390625;12,8564099675407;4,08935546875E-07;0,220367431640625;1;131;0,000106706659495831;-1,80224537849426E-05;100 nA
0,222320556640625;12,9052379674174;4,35546875E-07;0,22271728515625;1;132;0,000106706659495831;-1,80224537849426E-05;100 nA
0,224761962890625;12,9540659672941;4,64019775390625E-07;0,225250244140625;1;133;0,000106706659495831;-1,80224537849426E-05;100 nA
0,227203369140625;13,0028939671708;4,92279052734375E-07;0,227783203125;1;134;0,000106706659495831;-1,80224537849426E-05;100 nA
0,229644775390625;13,0517219670476;5,196533203125E-07;0,230194091796875;1;135;0,000106706659495831;-1,80224537849426E-05;100 nA
0,232086181640625;13,1005499669243;5,4925537109375E-07;0,232757568359375;1;136;0,000106706659495831;-1,80224537849426E-05;100 nA
0,234527587890625;13,149377966801;5,7879638671875E-07;0,235137939453125;1;137;0,000106706659495831;-1,80224537849426E-05;100 nA
0,236968994140625;13,1982059666777;6,065673828125E-07;0,237548828125;1;138;0,000106706659495831;-1,80224537849426E-05;100 nA
0,239410400390625;13,2470339665545;6,365966796875E-07;0,23956298828125;1;139;0,000106706659495831;-1,80224537849426E-05;1 µA
0,241851806640625;13,2958619664312;6,689453125E-07;0,2420654296875;1;140;0,000106706659495831;-1,80224537849426E-05;1 µA
0,244293212890625;13,3446899663079;6,97021484375E-07;0,244476318359375;1;141;0,000106706659495831;-1,80224537849426E-05;1 µA
0,246734619140625;13,3935179661846;7,28759765625E-07;0,246917724609375;1;142;0,000106706659495831;-1,80224537849426E-05;1 µA
0,249176025390625;13,4423459660613;7,598876953125E-07;0,249420166015625;1;143;0,000106706659495831;-1,80224537849426E-05;1 µA
0,251617431640625;13,4911739659381;7,92236328125E-07;0,251800537109375;1;144;0,000106706659495831;-1,80224537849426E-05;1 µA
0,254058837890625;13,5400019658148;8,2122802734375E-07;0,254364013671875;1;145;0,000106706659495831;-1,80224537849426E-05;1 µA
0,256500244140625;13,5888299656915;8,4991455078125E-07;0,2567138671875;1;146;0,000106706659495831;-1,80224537849426E-05;1 µA
0,258941650390625;13,6376579655682;8,8134765625E-07;0,259185791015625;1;147;0,000106706659495831;-1,80224537849426E-05;1 µA
0,261383056640625;13,6864859654449;9,100341796875E-07;0,261688232421875;1;148;0,000106706659495831;-1,80224537849426E-05;1 µA
0,263824462890625;13,7353139653217;9,3841552734375E-07;0,26409912109375;1;149;0,000106706659495831;-1,80224537849426E-05;1 µA
0,266265869140625;13,7841419651984;9,6954345703125E-07;0,26654052734375;1;150;0,000106706659495831;-1,80224537849426E-05;1 µA
0,268707275390625;13,8329699650751;1,0003662109375E-06;0,26898193359375;1;151;0,000106706659495831;-1,80224537849426E-05;1 µA
0,271148681640625;13,8817979649518;1,0321044921875E-06;0,27142333984375;1;152;0,000106706659495831;-1,80224537849426E-05;1 µA
0,273590087890625;13,9306259648286;1,0638427734375E-06;0,273895263671875;1;153;0,000106706659495831;-1,80224537849426E-05;1 µA
0,276031494140625;13,9794539647053;1,09954833984375E-06;0,27630615234375;1;154;0,000106706659495831;-1,80224537849426E-05;1 µA
0,278472900390625;14,028281964582;1,1309814453125E-06;0,278778076171875;1;155;0,000106706659495831;-1,80224537849426E-05;1 µA
0,280914306640625;14,0771099644587;1,16607666015625E-06;0,281219482421875;1;156;0,000106706659495831;-1,80224537849426E-05;1 µA
0,283355712890625;14,1259379643354;1,201171875E-06;0,28363037109375;1;157;0,000106706659495831;-1,80224537849426E-05;1 µA
0,285797119140625;14,1747659642122;1,23565673828125E-06;0,2861328125;1;158;0,000106706659495831;-1,80224537849426E-05;1 µA
0,288238525390625;14,2235939640889;1,26953125E-06;0,288482666015625;1;159;0,000106706659495831;-1,80224537849426E-05;1 µA
0,290679931640625;14,2724219639656;1,30584716796875E-06;0,290985107421875;1;160;0,000106706659495831;-1,80224537849426E-05;1 µA
0,293121337890625;14,3212499638423;1,34124755859375E-06;0,293426513671875;1;161;0,000106706659495831;-1,80224537849426E-05;1 µA
0,295562744140625;14,370077963719;1,3775634765625E-06;0,29595947265625;1;162;0,000106706659495831;-1,80224537849426E-05;1 µA
0,298004150390625;14,4189059635958;1,4141845703125E-06;0,298370361328125;1;163;0,000106706659495831;-1,80224537849426E-05;1 µA
0,300445556640625;14,4677339634725;1,45172119140625E-06;0,30072021484375;1;164;0,000106706659495831;-1,80224537849426E-05;1 µA
0,302886962890625;14,5165619633492;1,490478515625E-06;0,30328369140625;1;165;0,000106706659495831;-1,80224537849426E-05;1 µA
0,305328369140625;14,5653899632259;1,53076171875E-06;0,3056640625;1;166;0,000106706659495831;-1,80224537849426E-05;1 µA
0,307769775390625;14,6142179631026;1,57257080078125E-06;0,30816650390625;1;167;0,000106706659495831;-1,80224537849426E-05;1 µA
0,310211181640625;14,6630459629794;1,6168212890625E-06;0,31060791015625;1;168;0,000106706659495831;-1,80224537849426E-05;1 µA
0,312652587890625;14,7118739628561;1,66351318359375E-06;0,313079833984375;1;169;0,000106706659495831;-1,80224537849426E-05;1 µA
0,315093994140625;14,7607019627328;1,705322265625E-06;0,315521240234375;1;170;0,000106706659495831;-1,80224537849426E-05;1 µA
0,317535400390625;14,8095299626095;1,75384521484375E-06;0,317901611328125;1;171;0,000106706659495831;-1,80224537849426E-05;1 µA
0,319976806640625;14,8583579624863;1,80023193359375E-06;0,320404052734375;1;172;0,000106706659495831;-1,80224537849426E-05;1 µA
0,322418212890625;14,907185962363;1,84967041015625E-06;0,322845458984375;1;173;0,000106706659495831;-1,80224537849426E-05;1 µA
0,324859619140625;14,9560139622397;1,9000244140625E-06;0,32525634765625;1;174;0,000106706659495831;-1,80224537849426E-05;1 µA
0,327301025390625;15,0048419621164;1,95159912109375E-06;0,327728271484375;1;175;0,000106706659495831;-1,80224537849426E-05;1 µA
0,329742431640625;15,0536699619931;2,0037841796875E-06;0,330169677734375;1;176;0,000106706659495831;-1,80224537849426E-05;1 µA
0,332183837890625;15,1024979618699;2,059326171875E-06;0,33258056640625;1;177;0,000106706659495831;-1,80224537849426E-05;1 µA
0,334625244140625;15,1513259617466;2,11334228515625E-06;0,33502197265625;1;178;0,000106706659495831;-1,80224537849426E-05;1 µA
0,337066650390625;15,2001539616233;2,17010498046875E-06;0,337554931640625;1;179;0,000106706659495831;-1,80224537849426E-05;1 µA
0,339508056640625;15,2489819615;2,22930908203125E-06;0,34002685546875;1;180;0,000106706659495831;-1,80224537849426E-05;1 µA
0,341949462890625;15,2978099613767;2,29156494140625E-06;0,342437744140625;1;181;0,000106706659495831;-1,80224537849426E-05;1 µA
0,344390869140625;15,3466379612535;2,35687255859375E-06;0,344879150390625;1;182;0,000106706659495831;-1,80224537849426E-05;1 µA
0,346832275390625;15,3954659611302;2,423095703125E-06;0,34722900390625;1;183;0,000106706659495831;-1,80224537849426E-05;1 µA
0,349273681640625;15,4442939610069;2,491455078125E-06;0,3497314453125;1;184;0,000106706659495831;-1,80224537849426E-05;1 µA
0,351715087890625;15,4931219608836;2,56317138671875E-06;0,3521728515625;1;185;0,000106706659495831;-1,80224537849426E-05;1 µA
0,354156494140625;15,5419499607603;2,635498046875E-06;0,354644775390625;1;186;0,000106706659495831;-1,80224537849426E-05;1 µA
0,356597900390625;15,5907779606371;2,711181640625E-06;0,357208251953125;1;187;0,000106706659495831;-1,80224537849426E-05;1 µA
0,359039306640625;15,6396059605138;2,78594970703125E-06;0,359527587890625;1;188;0,000106706659495831;-1,80224537849426E-05;1 µA
0,361480712890625;15,6884339603905;2,86376953125E-06;0,361968994140625;1;189;0,000106706659495831;-1,80224537849426E-05;1 µA
0,363922119140625;15,7372619602672;2,943115234375E-06;0,364471435546875;1;190;0,000106706659495831;-1,80224537849426E-05;1 µA
0,366363525390625;15,786089960144;3,02825927734375E-06;0,366973876953125;1;191;0,000106706659495831;-1,80224537849426E-05;1 µA
0,368804931640625;15,8349179600207;3,11187744140625E-06;0,369293212890625;1;192;0,000106706659495831;-1,80224537849426E-05;1 µA
0,371246337890625;15,8837459598974;3,19976806640625E-06;0,371856689453125;1;193;0,000106706659495831;-1,80224537849426E-05;1 µA
0,373687744140625;15,9325739597741;3,29010009765625E-06;0,374267578125;1;194;0,000106706659495831;-1,80224537849426E-05;1 µA
0,376129150390625;15,9814019596508;3,38287353515625E-06;0,376739501953125;1;195;0,000106706659495831;-1,80224537849426E-05;1 µA
0,378570556640625;16,0302299595276;3,47869873046875E-06;0,37921142578125;1;196;0,000106706659495831;-1,80224537849426E-05;1 µA
0,381011962890625;16,0790579594043;3,57696533203125E-06;0,38165283203125;1;197;0,000106706659495831;-1,80224537849426E-05;1 µA
0,383453369140625;16,127885959281;3,677978515625E-06;0,384124755859375;1;198;0,000106706659495831;-1,80224537849426E-05;1 µA
0,385894775390625;16,1767139591577;3,78204345703125E-06;0,386474609375;1;199;0,000106706659495831;-1,80224537849426E-05;1 µA
0,388336181640625;16,2255419590344;3,8885498046875E-06;0,389007568359375;1;200;0,000106706659495831;-1,80224537849426E-05;1 µA
0,390777587890625;16,2743699589112;3,99810791015625E-06;0,39141845703125;1;201;0,000106706659495831;-1,80224537849426E-05;1 µA
0,393218994140625;16,3231979587879;4,1082763671875E-06;0,39398193359375;1;202;0,000106706659495831;-1,80224537849426E-05;1 µA
0,395660400390625;16,3720259586646;4,22088623046875E-06;0,396331787109375;1;203;0,000106706659495831;-1,80224537849426E-05;1 µA
0,398101806640625;16,4208539585413;4,33441162109375E-06;0,398895263671875;1;204;0,000106706659495831;-1,80224537849426E-05;1 µA
0,400543212890625;16,4696819584181;4,45159912109375E-06;0,401214599609375;1;205;0,000106706659495831;-1,80224537849426E-05;1 µA
0,402984619140625;16,5185099582948;4,57244873046875E-06;0,403717041015625;1;206;0,000106706659495831;-1,80224537849426E-05;1 µA
0,405426025390625;16,5673379581715;4,693603515625E-06;0,4061279296875;1;207;0,000106706659495831;-1,80224537849426E-05;1 µA
0,407867431640625;16,6161659580482;4,81842041015625E-06;0,40863037109375;1;208;0,000106706659495831;-1,80224537849426E-05;1 µA
0,410308837890625;16,6649939579249;4,9468994140625E-06;0,4111328125;1;209;0,000106706659495831;-1,80224537849426E-05;1 µA
0,412750244140625;16,7138219578017;5,0732421875E-06;0,4134521484375;1;210;0,000106706659495831;-1,80224537849426E-05;1 µA
0,415191650390625;16,7626499576784;5,20538330078125E-06;0,415924072265625;1;211;0,000106706659495831;-1,80224537849426E-05;1 µA
0,417633056640625;16,8114779575551;5,3411865234375E-06;0,418487548828125;1;212;0,000106706659495831;-1,80224537849426E-05;1 µA
0,420074462890625;16,8603059574318;5,47576904296875E-06;0,420928955078125;1;213;0,000106706659495831;-1,80224537849426E-05;1 µA
0,422515869140625;16,9091339573085;5,6146240234375E-06;0,42333984375;1;214;0,000106706659495831;-1,80224537849426E-05;1 µA
0,424957275390625;16,9579619571853;5,7550048828125E-06;0,425750732421875;1;215;0,000106706659495831;-1,80224537849426E-05;1 µA
0,427398681640625;17,006789957062;5,894775390625E-06;0,42828369140625;1;216;0,000106706659495831;-1,80224537849426E-05;1 µA
0,429840087890625;17,0556179569387;6,0406494140625E-06;0,43072509765625;1;217;0,000106706659495831;-1,80224537849426E-05;1 µA
0,432281494140625;17,1044459568154;6,182861328125E-06;0,432708740234375;1;218;0,000106706659495831;-1,80224537849426E-05;10 µA
0,434722900390625;17,1532739566921;6,3262939453125E-06;0,435150146484375;1;219;0,000106706659495831;-1,80224537849426E-05;10 µA
0,437164306640625;17,2021019565689;6,4727783203125E-06;0,43768310546875;1;220;0,000106706659495831;-1,80224537849426E-05;10 µA
0,439605712890625;17,2509299564456;6,622314453125E-06;0,4400634765625;1;221;0,000106706659495831;-1,80224537849426E-05;10 µA
0,442047119140625;17,2997579563223;6,768798828125E-06;0,442474365234375;1;222;0,000106706659495831;-1,80224537849426E-05;10 µA
0,444488525390625;17,348585956199;6,9183349609375E-06;0,44500732421875;1;223;0,000106706659495831;-1,80224537849426E-05;10 µA
0,446929931640625;17,3974139560758;7,06787109375E-06;0,447509765625;1;224;0,000106706659495831;-1,80224537849426E-05;10 µA
0,449371337890625;17,4462419559525;7,220458984375E-06;0,449920654296875;1;225;0,000106706659495831;-1,80224537849426E-05;10 µA
0,451812744140625;17,4950699558292;7,373046875E-06;0,452392578125;1;226;0,000106706659495831;-1,80224537849426E-05;10 µA
0,454254150390625;17,5438979557059;7,525634765625E-06;0,454803466796875;1;227;0,000106706659495831;-1,80224537849426E-05;10 µA
0,456695556640625;17,5927259555826;7,6812744140625E-06;0,45721435546875;1;228;0,000106706659495831;-1,80224537849426E-05;10 µA
0,459136962890625;17,6415539554594;7,830810546875E-06;0,459686279296875;1;229;0,000106706659495831;-1,80224537849426E-05;10 µA
0,461578369140625;17,6903819553361;7,9833984375E-06;0,462127685546875;1;230;0,000106706659495831;-1,80224537849426E-05;10 µA
0,464019775390625;17,7392099552128;8,135986328125E-06;0,4644775390625;1;231;0,000106706659495831;-1,80224537849426E-05;10 µA
0,466461181640625;17,7880379550895;8,28857421875E-06;0,467041015625;1;232;0,000106706659495831;-1,80224537849426E-05;10 µA
0,468902587890625;17,8368659549662;8,4381103515625E-06;0,46942138671875;1;233;0,000106706659495831;-1,80224537849426E-05;10 µA
0,471343994140625;17,885693954843;8,587646484375E-06;0,47186279296875;1;234;0,000106706659495831;-1,80224537849426E-05;10 µA
0,473785400390625;17,9345219547197;8,7371826171875E-06;0,47430419921875;1;235;0,000106706659495831;-1,80224537849426E-05;10 µA
0,476226806640625;17,9833499545964;8,88671875E-06;0,476715087890625;1;236;0,000106706659495831;-1,80224537849426E-05;10 µA
0,478668212890625;18,0321779544731;9,0362548828125E-06;0,479095458984375;1;237;0,000106706659495831;-1,80224537849426E-05;10 µA
0,481109619140625;18,0810059543498;9,1827392578125E-06;0,4815673828125;1;238;0,000106706659495831;-1,80224537849426E-05;10 µA
0,483551025390625;18,1298339542266;9,3292236328125E-06;0,484130859375;1;239;0,000106706659495831;-1,80224537849426E-05;10 µA
0,485992431640625;18,1786619541033;9,47265625E-06;0,4864501953125;1;240;0,000106706659495831;-1,80224537849426E-05;10 µA
0,488433837890625;18,22748995398;9,6160888671875E-06;0,488983154296875;1;241;0,000106706659495831;-1,80224537849426E-05;10 µA
0,490875244140625;18,2763179538567;9,759521484375E-06;0,49139404296875;1;242;0,000106706659495831;-1,80224537849426E-05;10 µA
0,493316650390625;18,3251459537335;9,9029541015625E-06;0,493896484375;1;243;0,000106706659495831;-1,80224537849426E-05;10 µA
0,495758056640625;18,3739739536102;1,0040283203125E-05;0,49627685546875;1;244;0,000106706659495831;-1,80224537849426E-05;10 µA
0,498199462890625;18,4228019534869;1,01776123046875E-05;0,49871826171875;1;245;0,000106706659495831;-1,80224537849426E-05;10 µA
0,500640869140625;18,4716299533636;1,03118896484375E-05;0,501190185546875;1;246;0,000106706659495831;-1,80224537849426E-05;10 µA
0,503082275390625;18,5204579532403;1,0443115234375E-05;0,503662109375;1;247;0,000106706659495831;-1,80224537849426E-05;10 µA
0,505523681640625;18,5692859531171;1,05743408203125E-05;0,506103515625;1;248;0,000106706659495831;-1,80224537849426E-05;10 µA
0,507965087890625;18,6181139529938;1,070556640625E-05;0,508544921875;1;249;0,000106706659495831;-1,80224537849426E-05;10 µA
0,510406494140625;18,6669419528705;1,082763671875E-05;0,51092529296875;1;250;0,000106706659495831;-1,80224537849426E-05;10 µA
0,512847900390625;18,7157699527472;1,094970703125E-05;0,513427734375;1;251;0,000106706659495831;-1,80224537849426E-05;10 µA
0,515289306640625;18,7645979526239;1,107177734375E-05;0,515838623046875;1;252;0,000106706659495831;-1,80224537849426E-05;10 µA
0,517730712890625;18,8134259525007;1,1187744140625E-05;0,518280029296875;1;253;0,000106706659495831;-1,80224537849426E-05;10 µA
0,520172119140625;18,8622539523774;1,13067626953125E-05;0,520721435546875;1;254;0,000106706659495831;-1,80224537849426E-05;10 µA
0,522613525390625;18,9110819522541;1,1419677734375E-05;0,523223876953125;1;255;0,000106706659495831;-1,80224537849426E-05;10 µA
0,525054931640625;18,9599099521308;1,1529541015625E-05;0,525634765625;1;256;0,000106706659495831;-1,80224537849426E-05;10 µA
0,527496337890625;19,0087379520076;1,1639404296875E-05;0,528076171875;1;257;0,000106706659495831;-1,80224537849426E-05;10 µA
0,529937744140625;19,0575659518843;1,17431640625E-05;0,530609130859375;1;258;0,000106706659495831;-1,80224537849426E-05;10 µA
0,532379150390625;19,106393951761;1,18438720703125E-05;0,53302001953125;1;259;0,000106706659495831;-1,80224537849426E-05;10 µA
0,534820556640625;19,1552219516377;1,1944580078125E-05;0,535400390625;1;260;0,000106706659495831;-1,80224537849426E-05;10 µA
0,537261962890625;19,2040499515144;1,20361328125E-05;0,537841796875;1;261;0,000106706659495831;-1,80224537849426E-05;10 µA
0,539703369140625;19,2528779513912;1,2127685546875E-05;0,54034423828125;1;262;0,000106706659495831;-1,80224537849426E-05;10 µA
0,542144775390625;19,3017059512679;1,221923828125E-05;0,542724609375;1;263;0,000106706659495831;-1,80224537849426E-05;10 µA
0,544586181640625;19,3505339511446;1,23016357421875E-05;0,54522705078125;1;264;0,000106706659495831;-1,80224537849426E-05;10 µA
0,547027587890625;19,3993619510213;1,2384033203125E-05;0,547637939453125;1;265;0,000106706659495831;-1,80224537849426E-05;10 µA
0,549468994140625;19,448189950898;1,24603271484375E-05;0,550140380859375;1;266;0,000106706659495831;-1,80224537849426E-05;10 µA
0,551910400390625;19,4970179507748;1,25335693359375E-05;0,5526123046875;1;267;0,000106706659495831;-1,80224537849426E-05;10 µA
0,554351806640625;19,5458459506515;1,260986328125E-05;0,554962158203125;1;268;0,000106706659495831;-1,80224537849426E-05;10 µA
0,556793212890625;19,5946739505282;1,26800537109375E-05;0,557373046875;1;269;0,000106706659495831;-1,80224537849426E-05;10 µA
0,559234619140625;19,6435019504049;1,2744140625E-05;0,55987548828125;1;270;0,000106706659495831;-1,80224537849426E-05;10 µA
0,561676025390625;19,6923299502816;1,2811279296875E-05;0,562408447265625;1;271;0,000106706659495831;-1,80224537849426E-05;10 µA
0,564117431640625;19,7411579501584;1,28692626953125E-05;0,56475830078125;1;272;0,000106706659495831;-1,80224537849426E-05;10 µA
0,566558837890625;19,7899859500351;1,292724609375E-05;0,5672607421875;1;273;0,000106706659495831;-1,80224537849426E-05;10 µA
0,569000244140625;19,8388139499118;1,29791259765625E-05;0,56964111328125;1;274;0,000106706659495831;-1,80224537849426E-05;10 µA
0,571441650390625;19,8876419497885;1,30279541015625E-05;0,572052001953125;1;275;0,000106706659495831;-1,80224537849426E-05;10 µA
0,573883056640625;19,9364699496653;1,307373046875E-05;0,5745849609375;1;276;0,000106706659495831;-1,80224537849426E-05;10 µA
0,576324462890625;19,985297949542;1,3116455078125E-05;0,57696533203125;1;277;0,000106706659495831;-1,80224537849426E-05;10 µA
0,578765869140625;20,0341259494187;1,3153076171875E-05;0,579376220703125;1;278;0,000106706659495831;-1,80224537849426E-05;10 µA
0,581207275390625;20,0829539492954;1,3189697265625E-05;0,581878662109375;1;279;0,000106706659495831;-1,80224537849426E-05;10 µA
0,583648681640625;20,1317819491721;1,32232666015625E-05;0,5843505859375;1;280;0,000106706659495831;-1,80224537849426E-05;10 µA
0,586090087890625;20,1806099490489;1,32568359375E-05;0,58685302734375;1;281;0,000106706659495831;-1,80224537849426E-05;10 µA
0,588531494140625;20,2294379489256;1,32843017578125E-05;0,589202880859375;1;282;0,000106706659495831;-1,80224537849426E-05;10 µA
0,590972900390625;20,2782659488023;1,33087158203125E-05;0,5916748046875;1;283;0,000106706659495831;-1,80224537849426E-05;10 µA
0,593414306640625;20,327093948679;1,3330078125E-05;0,594085693359375;1;284;0,000106706659495831;-1,80224537849426E-05;10 µA
0,595855712890625;20,3759219485557;1,33514404296875E-05;0,596649169921875;1;285;0,000106706659495831;-1,80224537849426E-05;10 µA
0,598297119140625;20,4247499484325;1,336669921875E-05;0,5989990234375;1;286;0,000106706659495831;-1,80224537849426E-05;10 µA
0,600738525390625;20,4735779483092;1,33819580078125E-05;0,601409912109375;1;287;0,000106706659495831;-1,80224537849426E-05;10 µA
0,603179931640625;20,5224059481859;1,339111328125E-05;0,6038818359375;1;288;0,000106706659495831;-1,80224537849426E-05;10 µA
0,605621337890625;20,5712339480626;1,3397216796875E-05;0,60626220703125;1;289;0,000106706659495831;-1,80224537849426E-05;10 µA
0,608062744140625;20,6200619479393;1,34002685546875E-05;0,6087646484375;1;290;0,000106706659495831;-1,80224537849426E-05;10 µA
0,610504150390625;20,6688899478161;1,34033203125E-05;0,611297607421875;1;291;0,000106706659495831;-1,80224537849426E-05;10 µA
0,612945556640625;20,7177179476928;1,34002685546875E-05;0,61370849609375;1;292;0,000106706659495831;-1,80224537849426E-05;10 µA
0,615386962890625;20,7665459475695;1,3397216796875E-05;0,616119384765625;1;293;0,000106706659495831;-1,80224537849426E-05;10 µA
0,617828369140625;20,8153739474462;1,33941650390625E-05;0,618560791015625;1;294;0,000106706659495831;-1,80224537849426E-05;10 µA
0,620269775390625;20,864201947323;1,33880615234375E-05;0,6209716796875;1;295;0,000106706659495831;-1,80224537849426E-05;10 µA
0,622711181640625;20,9130299471997;1,337890625E-05;0,62347412109375;1;296;0,000106706659495831;-1,80224537849426E-05;10 µA
0,625152587890625;20,9618579470764;1,33697509765625E-05;0,6258544921875;1;297;0,000106706659495831;-1,80224537849426E-05;10 µA
0,627593994140625;21,0106859469531;1,33544921875E-05;0,6282958984375;1;298;0,000106706659495831;-1,80224537849426E-05;10 µA
0,630035400390625;21,0595139468298;1,33392333984375E-05;0,63079833984375;1;299;0,000106706659495831;-1,80224537849426E-05;10 µA
0,632476806640625;21,1083419467066;1,3323974609375E-05;0,63330078125;1;300;0,000106706659495831;-1,80224537849426E-05;10 µA
0,634918212890625;21,1571699465833;1,33026123046875E-05;0,635650634765625;1;301;0,000106706659495831;-1,80224537849426E-05;10 µA
0,637359619140625;21,20599794646;1,32843017578125E-05;0,63812255859375;1;302;0,000106706659495831;-1,80224537849426E-05;10 µA
0,639801025390625;21,2548259463367;1,3262939453125E-05;0,640594482421875;1;303;0,000106706659495831;-1,80224537849426E-05;10 µA
0,642242431640625;21,3036539462134;1,3238525390625E-05;0,64300537109375;1;304;0,000106706659495831;-1,80224537849426E-05;10 µA
0,644683837890625;21,3524819460902;1,32110595703125E-05;0,645477294921875;1;305;0,000106706659495831;-1,80224537849426E-05;10 µA
0,647125244140625;21,4013099459669;1,318359375E-05;0,647918701171875;1;306;0,000106706659495831;-1,80224537849426E-05;10 µA
0,649566650390625;21,4501379458436;1,31561279296875E-05;0,650299072265625;1;307;0,000106706659495831;-1,80224537849426E-05;10 µA
0,652008056640625;21,4989659457203;1,3128662109375E-05;0,652801513671875;1;308;0,000106706659495831;-1,80224537849426E-05;10 µA
0,654449462890625;21,547793945597;1,309814453125E-05;0,6552734375;1;309;0,000106706659495831;-1,80224537849426E-05;10 µA
0,656890869140625;21,5966219454738;1,30645751953125E-05;0,657684326171875;1;310;0,000106706659495831;-1,80224537849426E-05;10 µA
0,659332275390625;21,6454499453505;1,30340576171875E-05;0,660125732421875;1;311;0,000106706659495831;-1,80224537849426E-05;10 µA
0,661773681640625;21,6942779452272;1,300048828125E-05;0,662567138671875;1;312;0,000106706659495831;-1,80224537849426E-05;10 µA
0,664215087890625;21,7431059451039;1,29669189453125E-05;0,665069580078125;1;313;0,000106706659495831;-1,80224537849426E-05;10 µA
0,666656494140625;21,7919339449807;1,29302978515625E-05;0,667449951171875;1;314;0,000106706659495831;-1,80224537849426E-05;10 µA
0,669097900390625;21,8407619448574;1,2896728515625E-05;0,66986083984375;1;315;0,000106706659495831;-1,80224537849426E-05;10 µA
0,671539306640625;21,8895899447341;1,2860107421875E-05;0,67236328125;1;316;0,000106706659495831;-1,80224537849426E-05;10 µA
0,673980712890625;21,9384179446108;1,2823486328125E-05;0,674774169921875;1;317;0,000106706659495831;-1,80224537849426E-05;10 µA
0,676422119140625;21,9872459444875;1,27838134765625E-05;0,67724609375;1;318;0,000106706659495831;-1,80224537849426E-05;10 µA
0,678863525390625;22,0360739443643;1,27471923828125E-05;0,67962646484375;1;319;0,000106706659495831;-1,80224537849426E-05;10 µA
0,681304931640625;22,084901944241;1,270751953125E-05;0,682037353515625;1;320;0,000106706659495831;-1,80224537849426E-05;10 µA
0,683746337890625;22,1337299441177;1,26678466796875E-05;0,684539794921875;1;321;0,000106706659495831;-1,80224537849426E-05;10 µA
0,686187744140625;22,1825579439944;1,26312255859375E-05;0,68701171875;1;322;0,000106706659495831;-1,80224537849426E-05;10 µA
0,688629150390625;22,2313859438711;1,2591552734375E-05;0,689422607421875;1;323;0,000106706659495831;-1,80224537849426E-05;10 µA
0,691070556640625;22,2802139437479;1,2554931640625E-05;0,69189453125;1;324;0,000106706659495831;-1,80224537849426E-05;10 µA
0,693511962890625;22,3290419436246;1,25152587890625E-05;0,6943359375;1;325;0,000106706659495831;-1,80224537849426E-05;10 µA
0,695953369140625;22,3778699435013;1,24786376953125E-05;0,69671630859375;1;326;0,000106706659495831;-1,80224537849426E-05;10 µA
0,698394775390625;22,426697943378;1,24420166015625E-05;0,699249267578125;1;327;0,000106706659495831;-1,80224537849426E-05;10 µA
0,700836181640625;22,4755259432548;1,24053955078125E-05;0,70172119140625;1;328;0,000106706659495831;-1,80224537849426E-05;10 µA
0,698394775390625;22,5243539431315;1,19903564453125E-05;0,699188232421875;1;329;0,000106706659495831;-1,80224537849426E-05;10 µA
0,695953369140625;22,5731819430082;1,16668701171875E-05;0,69677734375;1;330;0,000106706659495831;-1,80224537849426E-05;10 µA
0,693511962890625;22,6220099428849;1,13922119140625E-05;0,6943359375;1;331;0,000106706659495831;-1,80224537849426E-05;10 µA
0,691070556640625;22,6708379427616;1,114501953125E-05;0,691925048828125;1;332;0,000106706659495831;-1,80224537849426E-05;10 µA
0,688629150390625;22,7196659426384;1,092529296875E-05;0,689422607421875;1;333;0,000106706659495831;-1,80224537849426E-05;10 µA
0,686187744140625;22,7684939425151;1,07208251953125E-05;0,686981201171875;1;334;0,000106706659495831;-1,80224537849426E-05;10 µA
0,683746337890625;22,8173219423918;1,05316162109375E-05;0,684539794921875;1;335;0,000106706659495831;-1,80224537849426E-05;10 µA
0,681304931640625;22,8661499422685;1,03546142578125E-05;0,682037353515625;1;336;0,000106706659495831;-1,80224537849426E-05;10 µA
0,678863525390625;22,9149779421452;1,01837158203125E-05;0,6796875;1;337;0,000106706659495831;-1,80224537849426E-05;10 µA
0,676422119140625;22,963805942022;1,00250244140625E-05;0,67724609375;1;338;0,000106706659495831;-1,80224537849426E-05;10 µA
0,673980712890625;23,0126339418987;9,8724365234375E-06;0,674713134765625;1;339;0,000106706659495831;-1,80224537849426E-05;10 µA
0,671539306640625;23,0614619417754;9,72900390625E-06;0,672332763671875;1;340;0,000106706659495831;-1,80224537849426E-05;10 µA
0,669097900390625;23,1102899416521;9,5855712890625E-06;0,66986083984375;1;341;0,000106706659495831;-1,80224537849426E-05;10 µA
0,666656494140625;23,1591179415288;9,4512939453125E-06;0,667388916015625;1;342;0,000106706659495831;-1,80224537849426E-05;10 µA
0,664215087890625;23,2079459414056;9,3231201171875E-06;0,6649169921875;1;343;0,000106706659495831;-1,80224537849426E-05;10 µA
0,661773681640625;23,2567739412823;9,197998046875E-06;0,662506103515625;1;344;0,000106706659495831;-1,80224537849426E-05;10 µA
0,659332275390625;23,305601941159;9,0728759765625E-06;0,66009521484375;1;345;0,000106706659495831;-1,80224537849426E-05;10 µA
0,656890869140625;23,3544299410357;8,9508056640625E-06;0,657623291015625;1;346;0,000106706659495831;-1,80224537849426E-05;10 µA
0,654449462890625;23,4032579409125;8,831787109375E-06;0,655242919921875;1;347;0,000106706659495831;-1,80224537849426E-05;10 µA
0,652008056640625;23,4520859407892;8,7127685546875E-06;0,652801513671875;1;348;0,000106706659495831;-1,80224537849426E-05;10 µA
0,649566650390625;23,5009139406659;8,599853515625E-06;0,650238037109375;1;349;0,000106706659495831;-1,80224537849426E-05;10 µA
0,647125244140625;23,5497419405426;8,489990234375E-06;0,647796630859375;1;350;0,000106706659495831;-1,80224537849426E-05;10 µA
0,644683837890625;23,5985699404193;8,380126953125E-06;0,6453857421875;1;351;0,000106706659495831;-1,80224537849426E-05;10 µA
0,642242431640625;23,6473979402961;8,2763671875E-06;0,6429443359375;1;352;0,000106706659495831;-1,80224537849426E-05;10 µA
0,639801025390625;23,6962259401728;8,172607421875E-06;0,640533447265625;1;353;0,000106706659495831;-1,80224537849426E-05;10 µA
0,637359619140625;23,7450539400495;8,0718994140625E-06;0,638153076171875;1;354;0,000106706659495831;-1,80224537849426E-05;10 µA
0,634918212890625;23,7938819399262;7,97119140625E-06;0,63568115234375;1;355;0,000106706659495831;-1,80224537849426E-05;10 µA
0,632476806640625;23,8427099398029;7,87353515625E-06;0,633209228515625;1;356;0,000106706659495831;-1,80224537849426E-05;10 µA
0,630035400390625;23,8915379396797;7,77587890625E-06;0,6307373046875;1;357;0,000106706659495831;-1,80224537849426E-05;10 µA
0,627593994140625;23,9403659395564;7,67822265625E-06;0,62835693359375;1;358;0,000106706659495831;-1,80224537849426E-05;10 µA
0,625152587890625;23,9891939394331;7,586669921875E-06;0,6258544921875;1;359;0,000106706659495831;-1,80224537849426E-05;10 µA
0,622711181640625;24,0380219393098;7,489013671875E-06;0,623443603515625;1;360;0,000106706659495831;-1,80224537849426E-05;10 µA
0,620269775390625;24,0868499391865;7,3944091796875E-06;0,620849609375;1;361;0,000106706659495831;-1,80224537849426E-05;10 µA
0,617828369140625;24,1356779390633;7,3028564453125E-06;0,618560791015625;1;362;0,000106706659495831;-1,80224537849426E-05;10 µA
0,615386962890625;24,18450593894;7,208251953125E-06;0,61602783203125;1;363;0,000106706659495831;-1,80224537849426E-05;10 µA
0,612945556640625;24,2333339388167;7,1197509765625E-06;0,6136474609375;1;364;0,000106706659495831;-1,80224537849426E-05;10 µA
0,610504150390625;24,2821619386934;7,0281982421875E-06;0,611114501953125;1;365;0,000106706659495831;-1,80224537849426E-05;10 µA
0,608062744140625;24,3309899385702;6,939697265625E-06;0,608734130859375;1;366;0,000106706659495831;-1,80224537849426E-05;10 µA
0,605621337890625;24,3798179384469;6,854248046875E-06;0,60626220703125;1;367;0,000106706659495831;-1,80224537849426E-05;10 µA
0,603179931640625;24,4286459383236;6,768798828125E-06;0,603851318359375;1;368;0,000106706659495831;-1,80224537849426E-05;10 µA
0,600738525390625;24,4774739382003;6,6802978515625E-06;0,601318359375;1;369;0,000106706659495831;-1,80224537849426E-05;10 µA
0,598297119140625;24,526301938077;6,597900390625E-06;0,598968505859375;1;370;0,000106706659495831;-1,80224537849426E-05;10 µA
0,595855712890625;24,5751299379538;6,512451171875E-06;0,596527099609375;1;371;0,000106706659495831;-1,80224537849426E-05;10 µA
0,593414306640625;24,6239579378305;6,427001953125E-06;0,594085693359375;1;372;0,000106706659495831;-1,80224537849426E-05;10 µA
0,590972900390625;24,6727859377072;6,3446044921875E-06;0,591583251953125;1;373;0,000106706659495831;-1,80224537849426E-05;10 µA
0,588531494140625;24,7216139375839;6,256103515625E-06;0,589141845703125;1;374;0,000106706659495831;-1,80224537849426E-05;10 µA
0,586090087890625;24,7704419374606;6,1737060546875E-06;0,58673095703125;1;375;0,000106706659495831;-1,80224537849426E-05;10 µA
0,583648681640625;24,8192699373374;6,0882568359375E-06;0,584320068359375;1;376;0,000106706659495831;-1,80224537849426E-05;10 µA
0,581207275390625;24,8680979372141;6,005859375E-06;0,581787109375;1;377;0,000106706659495831;-1,80224537849426E-05;10 µA
0,578765869140625;24,9169259370908;5,9234619140625E-06;0,57940673828125;1;378;0,000106706659495831;-1,80224537849426E-05;10 µA
0,576324462890625;24,9657539369675;5,8441162109375E-06;0,576934814453125;1;379;0,000106706659495831;-1,80224537849426E-05;10 µA
0,573883056640625;25,0145819368443;5,76171875E-06;0,574493408203125;1;380;0,000106706659495831;-1,80224537849426E-05;10 µA
0,571441650390625;25,063409936721;5,682373046875E-06;0,572021484375;1;381;0,000106706659495831;-1,80224537849426E-05;10 µA
0,569000244140625;25,1122379365977;5,60302734375E-06;0,56964111328125;1;382;0,000106706659495831;-1,80224537849426E-05;10 µA
0,566558837890625;25,1610659364744;5,523681640625E-06;0,567138671875;1;383;0,000106706659495831;-1,80224537849426E-05;10 µA
0,564117431640625;25,2098939363511;5,4443359375E-06;0,56463623046875;1;384;0,000106706659495831;-1,80224537849426E-05;10 µA
0,561676025390625;25,2587219362279;5,364990234375E-06;0,562255859375;1;385;0,000106706659495831;-1,80224537849426E-05;10 µA
0,559234619140625;25,3075499361046;5,2886962890625E-06;0,559844970703125;1;386;0,000106706659495831;-1,80224537849426E-05;10 µA
0,556793212890625;25,3563779359813;5,2093505859375E-06;0,55743408203125;1;387;0,000106706659495831;-1,80224537849426E-05;10 µA
0,554351806640625;25,405205935858;5,133056640625E-06;0,554931640625;1;388;0,000106706659495831;-1,80224537849426E-05;10 µA
0,551910400390625;25,4540339357347;5,0506591796875E-06;0,55242919921875;1;389;0,000106706659495831;-1,80224537849426E-05;10 µA
0,549468994140625;25,5028619356115;4,974365234375E-06;0,550048828125;1;390;0,000106706659495831;-1,80224537849426E-05;10 µA
0,547027587890625;25,5516899354882;4,8980712890625E-06;0,547607421875;1;391;0,000106706659495831;-1,80224537849426E-05;10 µA
0,544586181640625;25,6005179353649;4,82177734375E-06;0,545166015625;1;392;0,000106706659495831;-1,80224537849426E-05;10 µA
0,542144775390625;25,6493459352416;4,7454833984375E-06;0,542694091796875;1;393;0,000106706659495831;-1,80224537849426E-05;10 µA
0,539703369140625;25,6981739351183;4,676513671875E-06;0,540191650390625;1;394;0,000106706659495831;-1,80224537849426E-05;10 µA
0,537261962890625;25,7470019349951;4,593505859375E-06;0,5382080078125;1;395;0,000106706659495831;-1,80224537849426E-05;1 µA
0,534820556640625;25,7958299348718;4,52117919921875E-06;0,535614013671875;1;396;0,000106706659495831;-1,80224537849426E-05;1 µA
0,532379150390625;25,8446579347485;4,44580078125E-06;0,533233642578125;1;397;0,000106706659495831;-1,80224537849426E-05;1 µA
0,529937744140625;25,8934859346252;4,37225341796875E-06;0,530853271484375;1;398;0,000106706659495831;-1,80224537849426E-05;1 µA
0,527496337890625;25,942313934502;4,300537109375E-06;0,5284423828125;1;399;0,000106706659495831;-1,80224537849426E-05;1 µA
0,525054931640625;25,9911419343787;4,22760009765625E-06;0,525848388671875;1;400;0,000106706659495831;-1,80224537849426E-05;1 µA
0,522613525390625;26,0399699342554;4,1552734375E-06;0,5234375;1;401;0,000106706659495831;-1,80224537849426E-05;1 µA
0,520172119140625;26,0887979341321;4,0814208984375E-06;0,520965576171875;1;402;0,000106706659495831;-1,80224537849426E-05;1 µA
0,517730712890625;26,1376259340088;4,0087890625E-06;0,518524169921875;1;403;0,000106706659495831;-1,80224537849426E-05;1 µA
0,515289306640625;26,1864539338856;3,93768310546875E-06;0,51611328125;1;404;0,000106706659495831;-1,80224537849426E-05;1 µA
0,512847900390625;26,2352819337623;3,8641357421875E-06;0,513702392578125;1;405;0,000106706659495831;-1,80224537849426E-05;1 µA
0,510406494140625;26,284109933639;3,79241943359375E-06;0,5111083984375;1;406;0,000106706659495831;-1,80224537849426E-05;1 µA
0,507965087890625;26,3329379335157;3,72283935546875E-06;0,50872802734375;1;407;0,000106706659495831;-1,80224537849426E-05;1 µA
0,505523681640625;26,3817659333924;3,65142822265625E-06;0,50628662109375;1;408;0,000106706659495831;-1,80224537849426E-05;1 µA
0,503082275390625;26,4305939332692;3,58367919921875E-06;0,503875732421875;1;409;0,000106706659495831;-1,80224537849426E-05;1 µA
0,500640869140625;26,4794219331459;3,51593017578125E-06;0,501373291015625;1;410;0,000106706659495831;-1,80224537849426E-05;1 µA
0,498199462890625;26,5282499330226;3,44818115234375E-06;0,4989013671875;1;411;0,000106706659495831;-1,80224537849426E-05;1 µA
0,495758056640625;26,5770779328993;3,3819580078125E-06;0,496551513671875;1;412;0,000106706659495831;-1,80224537849426E-05;1 µA
0,493316650390625;26,625905932776;3,31634521484375E-06;0,4940185546875;1;413;0,000106706659495831;-1,80224537849426E-05;1 µA
0,490875244140625;26,6747339326528;3,25103759765625E-06;0,49163818359375;1;414;0,000106706659495831;-1,80224537849426E-05;1 µA
0,488433837890625;26,7235619325295;3,184814453125E-06;0,4891357421875;1;415;0,000106706659495831;-1,80224537849426E-05;1 µA
0,485992431640625;26,7723899324062;3,1195068359375E-06;0,48663330078125;1;416;0,000106706659495831;-1,80224537849426E-05;1 µA
0,483551025390625;26,8212179322829;3,052978515625E-06;0,48431396484375;1;417;0,000106706659495831;-1,80224537849426E-05;1 µA
0,481109619140625;26,8700459321597;2,987060546875E-06;0,481781005859375;1;418;0,000106706659495831;-1,80224537849426E-05;1 µA
0,478668212890625;26,9188739320364;2,923583984375E-06;0,47930908203125;1;419;0,000106706659495831;-1,80224537849426E-05;1 µA
0,476226806640625;26,9677019319131;2,85980224609375E-06;0,476898193359375;1;420;0,000106706659495831;-1,80224537849426E-05;1 µA
0,473785400390625;27,0165299317898;2,79632568359375E-06;0,47442626953125;1;421;0,000106706659495831;-1,80224537849426E-05;1 µA
0,471343994140625;27,0653579316665;2,73681640625E-06;0,471954345703125;1;422;0,000106706659495831;-1,80224537849426E-05;1 µA
0,468902587890625;27,1141859315433;2,67669677734375E-06;0,4696044921875;1;423;0,000106706659495831;-1,80224537849426E-05;1 µA
0,466461181640625;27,16301393142;2,6190185546875E-06;0,467041015625;1;424;0,000106706659495831;-1,80224537849426E-05;1 µA
0,464019775390625;27,2118419312967;2,55950927734375E-06;0,464691162109375;1;425;0,000106706659495831;-1,80224537849426E-05;1 µA
0,461578369140625;27,2606699311734;2,5030517578125E-06;0,462158203125;1;426;0,000106706659495831;-1,80224537849426E-05;1 µA
0,459136962890625;27,3094979310501;2,44598388671875E-06;0,459747314453125;1;427;0,000106706659495831;-1,80224537849426E-05;1 µA
0,456695556640625;27,3583259309269;2,39227294921875E-06;0,457305908203125;1;428;0,000106706659495831;-1,80224537849426E-05;1 µA
0,454254150390625;27,4071539308036;2,3345947265625E-06;0,454833984375;1;429;0,000106706659495831;-1,80224537849426E-05;1 µA
0,451812744140625;27,4559819306803;2,27752685546875E-06;0,45245361328125;1;430;0,000106706659495831;-1,80224537849426E-05;1 µA
0,449371337890625;27,504809930557;2,22320556640625E-06;0,450042724609375;1;431;0,000106706659495831;-1,80224537849426E-05;1 µA
0,446929931640625;27,5536379304338;2,16888427734375E-06;0,447479248046875;1;432;0,000106706659495831;-1,80224537849426E-05;1 µA
0,444488525390625;27,6024659303105;2,11517333984375E-06;0,445068359375;1;433;0,000106706659495831;-1,80224537849426E-05;1 µA
0,442047119140625;27,6512939301872;2,06268310546875E-06;0,442718505859375;1;434;0,000106706659495831;-1,80224537849426E-05;1 µA
0,439605712890625;27,7001219300639;2,00958251953125E-06;0,440185546875;1;435;0,000106706659495831;-1,80224537849426E-05;1 µA
0,437164306640625;27,7489499299406;1,96044921875E-06;0,437713623046875;1;436;0,000106706659495831;-1,80224537849426E-05;1 µA
0,434722900390625;27,7977779298174;1,91192626953125E-06;0,435333251953125;1;437;0,000106706659495831;-1,80224537849426E-05;1 µA
0,432281494140625;27,8466059296941;1,86370849609375E-06;0,432891845703125;1;438;0,000106706659495831;-1,80224537849426E-05;1 µA
0,429840087890625;27,8954339295708;1,81884765625E-06;0,430328369140625;1;439;0,000106706659495831;-1,80224537849426E-05;1 µA
0,427398681640625;27,9442619294475;1,7718505859375E-06;0,427947998046875;1;440;0,000106706659495831;-1,80224537849426E-05;1 µA
0,424957275390625;27,9930899293242;1,727294921875E-06;0,425445556640625;1;441;0,000106706659495831;-1,80224537849426E-05;1 µA
0,422515869140625;28,041917929201;1,68365478515625E-06;0,422943115234375;1;442;0,000106706659495831;-1,80224537849426E-05;1 µA
0,420074462890625;28,0907459290777;1,64031982421875E-06;0,420654296875;1;443;0,000106706659495831;-1,80224537849426E-05;1 µA
0,417633056640625;28,1395739289544;1,5960693359375E-06;0,4180908203125;1;444;0,000106706659495831;-1,80224537849426E-05;1 µA
0,415191650390625;28,1884019288311;1,55303955078125E-06;0,41571044921875;1;445;0,000106706659495831;-1,80224537849426E-05;1 µA
0,412750244140625;28,2372299287078;1,51123046875E-06;0,413238525390625;1;446;0,000106706659495831;-1,80224537849426E-05;1 µA
0,410308837890625;28,2860579285846;1,4703369140625E-06;0,410797119140625;1;447;0,000106706659495831;-1,80224537849426E-05;1 µA
0,407867431640625;28,3348859284613;1,42974853515625E-06;0,4083251953125;1;448;0,000106706659495831;-1,80224537849426E-05;1 µA
0,405426025390625;28,383713928338;1,38885498046875E-06;0,405975341796875;1;449;0,000106706659495831;-1,80224537849426E-05;1 µA
0,402984619140625;28,4325419282147;1,35284423828125E-06;0,40350341796875;1;450;0,000106706659495831;-1,80224537849426E-05;1 µA
0,400543212890625;28,4813699280915;1,31683349609375E-06;0,401031494140625;1;451;0,000106706659495831;-1,80224537849426E-05;1 µA
0,398101806640625;28,5301979279682;1,28082275390625E-06;0,398529052734375;1;452;0,000106706659495831;-1,80224537849426E-05;1 µA
0,395660400390625;28,5790259278449;1,24725341796875E-06;0,396148681640625;1;453;0,000106706659495831;-1,80224537849426E-05;1 µA
0,393218994140625;28,6278539277216;1,214599609375E-06;0,3936767578125;1;454;0,000106706659495831;-1,80224537849426E-05;1 µA
0,390777587890625;28,6766819275983;1,18194580078125E-06;0,3912353515625;1;455;0,000106706659495831;-1,80224537849426E-05;1 µA
0,388336181640625;28,7255099274751;1,15203857421875E-06;0,388824462890625;1;456;0,000106706659495831;-1,80224537849426E-05;1 µA
0,385894775390625;28,7743379273518;1,11968994140625E-06;0,38629150390625;1;457;0,000106706659495831;-1,80224537849426E-05;1 µA
0,383453369140625;28,8231659272285;1,08795166015625E-06;0,383880615234375;1;458;0,000106706659495831;-1,80224537849426E-05;1 µA
0,381011962890625;28,8719939271052;1,05804443359375E-06;0,3814697265625;1;459;0,000106706659495831;-1,80224537849426E-05;1 µA
0,378570556640625;28,9208219269819;1,02630615234375E-06;0,378997802734375;1;460;0,000106706659495831;-1,80224537849426E-05;1 µA
0,376129150390625;28,9696499268587;9,9578857421875E-07;0,3765869140625;1;461;0,000106706659495831;-1,80224537849426E-05;1 µA
0,373687744140625;29,0184779267354;9,6710205078125E-07;0,37408447265625;1;462;0,000106706659495831;-1,80224537849426E-05;1 µA
0,371246337890625;29,0673059266121;9,3994140625E-07;0,3717041015625;1;463;0,000106706659495831;-1,80224537849426E-05;1 µA
0,368804931640625;29,1161339264888;9,1217041015625E-07;0,36920166015625;1;464;0,000106706659495831;-1,80224537849426E-05;1 µA
0,366363525390625;29,1649619263655;8,8836669921875E-07;0,366790771484375;1;465;0,000106706659495831;-1,80224537849426E-05;1 µA
0,363922119140625;29,2137899262423;8,636474609375E-07;0,364288330078125;1;466;0,000106706659495831;-1,80224537849426E-05;1 µA
0,361480712890625;29,262617926119;8,4075927734375E-07;0,36187744140625;1;467;0,000106706659495831;-1,80224537849426E-05;1 µA
0,359039306640625;29,3114459259957;8,184814453125E-07;0,359375;1;468;0,000106706659495831;-1,80224537849426E-05;1 µA
0,356597900390625;29,3602739258724;7,9681396484375E-07;0,35699462890625;1;469;0,000106706659495831;-1,80224537849426E-05;1 µA
0,354156494140625;29,4091019257492;7,7484130859375E-07;0,354522705078125;1;470;0,000106706659495831;-1,80224537849426E-05;1 µA
0,351715087890625;29,4579299256259;7,537841796875E-07;0,352020263671875;1;471;0,000106706659495831;-1,80224537849426E-05;1 µA
0,349273681640625;29,5067579255026;7,3089599609375E-07;0,349578857421875;1;472;0,000106706659495831;-1,80224537849426E-05;1 µA
0,346832275390625;29,5555859253793;7,09228515625E-07;0,34716796875;1;473;0,000106706659495831;-1,80224537849426E-05;1 µA
0,344390869140625;29,604413925256;6,884765625E-07;0,344757080078125;1;474;0,000106706659495831;-1,80224537849426E-05;1 µA
0,341949462890625;29,6532419251328;6,6619873046875E-07;0,34228515625;1;475;0,000106706659495831;-1,80224537849426E-05;1 µA
0,339508056640625;29,7020699250095;6,4605712890625E-07;0,339813232421875;1;476;0,000106706659495831;-1,80224537849426E-05;1 µA
0,337066650390625;29,7508979248862;6,2713623046875E-07;0,33746337890625;1;477;0,000106706659495831;-1,80224537849426E-05;1 µA
0,334625244140625;29,7997259247629;6,085205078125E-07;0,3349609375;1;478;0,000106706659495831;-1,80224537849426E-05;1 µA
0,332183837890625;29,8485539246396;5,9295654296875E-07;0,332489013671875;1;479;0,000106706659495831;-1,80224537849426E-05;1 µA
0,329742431640625;29,8973819245164;5,7586669921875E-07;0,329986572265625;1;480;0,000106706659495831;-1,80224537849426E-05;1 µA
0,327301025390625;29,9462099243931;5,5877685546875E-07;0,327606201171875;1;481;0,000106706659495831;-1,80224537849426E-05;1 µA
0,324859619140625;29,9950379242698;5,4412841796875E-07;0,325225830078125;1;482;0,000106706659495831;-1,80224537849426E-05;1 µA
0,322418212890625;30,0438659241465;5,2886962890625E-07;0,32275390625;1;483;0,000106706659495831;-1,80224537849426E-05;1 µA
0,319976806640625;30,0926939240233;5,1513671875E-07;0,320220947265625;1;484;0,000106706659495831;-1,80224537849426E-05;1 µA
0,317535400390625;30,1415219239;5,0018310546875E-07;0,317840576171875;1;485;0,000106706659495831;-1,80224537849426E-05;1 µA
0,315093994140625;30,1903499237767;4,8095703125E-07;0,315399169921875;1;486;0,000106706659495831;-1,80224537849426E-05;1 µA
0,312652587890625;30,2391779236534;4,6661376953125E-07;0,312896728515625;1;487;0,000106706659495831;-1,80224537849426E-05;1 µA
0,310211181640625;30,2880059235301;4,498291015625E-07;0,310546875;1;488;0,000106706659495831;-1,80224537849426E-05;1 µA
0,307769775390625;30,3368339234069;4,3426513671875E-07;0,30804443359375;1;489;0,000106706659495831;-1,80224537849426E-05;1 µA
0,305328369140625;30,3856619232836;4,1748046875E-07;0,30560302734375;1;490;0,000106706659495831;-1,80224537849426E-05;1 µA
0,302886962890625;30,4344899231603;4,053955078125E-07;0,303436279296875;1;491;0,000106706659495831;-1,80224537849426E-05;100 nA
0,300445556640625;30,483317923037;3,905029296875E-07;0,300994873046875;1;492;0,000106706659495831;-1,80224537849426E-05;100 nA
0,298004150390625;30,5321459229137;3,7896728515625E-07;0,298553466796875;1;493;0,000106706659495831;-1,80224537849426E-05;100 nA
0,295562744140625;30,5809739227905;3,66119384765625E-07;0,2960205078125;1;494;0,000106706659495831;-1,80224537849426E-05;100 nA
0,293121337890625;30,6298019226672;3,5302734375E-07;0,293670654296875;1;495;0,000106706659495831;-1,80224537849426E-05;100 nA
0,290679931640625;30,6786299225439;3,414306640625E-07;0,29119873046875;1;496;0,000106706659495831;-1,80224537849426E-05;100 nA
0,288238525390625;30,7274579224206;3,2891845703125E-07;0,2886962890625;1;497;0,000106706659495831;-1,80224537849426E-05;100 nA
0,285797119140625;30,7762859222973;3,15185546875E-07;0,286285400390625;1;498;0,000106706659495831;-1,80224537849426E-05;100 nA
0,283355712890625;30,8251139221741;3,0316162109375E-07;0,283843994140625;1;499;0,000106706659495831;-1,80224537849426E-05;100 nA
0,280914306640625;30,8739419220508;2,8814697265625E-07;0,28131103515625;1;500;0,000106706659495831;-1,80224537849426E-05;100 nA
0,278472900390625;30,9227699219275;2,750244140625E-07;0,27886962890625;1;501;0,000106706659495831;-1,80224537849426E-05;100 nA
0,276031494140625;30,9715979218042;2,6251220703125E-07;0,2763671875;1;502;0,000106706659495831;-1,80224537849426E-05;100 nA
0,273590087890625;31,020425921681;2,4786376953125E-07;0,27398681640625;1;503;0,000106706659495831;-1,80224537849426E-05;100 nA
0,271148681640625;31,0692539215577;2,34375E-07;0,27154541015625;1;504;0,000106706659495831;-1,80224537849426E-05;100 nA
0,268707275390625;31,1180819214344;2,216796875E-07;0,269012451171875;1;505;0,000106706659495831;-1,80224537849426E-05;100 nA
0,266265869140625;31,1669099213111;2,08251953125E-07;0,266632080078125;1;506;0,000106706659495831;-1,80224537849426E-05;100 nA
0,263824462890625;31,2157379211878;1,981201171875E-07;0,26422119140625;1;507;0,000106706659495831;-1,80224537849426E-05;100 nA
0,261383056640625;31,2645659210646;1,87255859375E-07;0,26165771484375;1;508;0,000106706659495831;-1,80224537849426E-05;100 nA
0,258941650390625;31,3133939209413;1,73309326171875E-07;0,25927734375;1;509;0,000106706659495831;-1,80224537849426E-05;100 nA
0,256500244140625;31,362221920818;1,62017822265625E-07;0,25677490234375;1;510;0,000106706659495831;-1,80224537849426E-05;100 nA
0,254058837890625;31,4110499206947;1,49688720703125E-07;0,2542724609375;1;511;0,000106706659495831;-1,80224537849426E-05;100 nA
0,251617431640625;31,4598779205714;1,3671875E-07;0,251983642578125;1;512;0,000106706659495831;-1,80224537849426E-05;100 nA
0,249176025390625;31,5087059204482;1,253662109375E-07;0,2493896484375;1;513;0,000106706659495831;-1,80224537849426E-05;100 nA
0,246734619140625;31,5575339203249;1,11419677734375E-07;0,246978759765625;1;514;0,000106706659495831;-1,80224537849426E-05;100 nA
0,244293212890625;31,6063619202016;9,6527099609375E-08;0,244537353515625;1;515;0,000106706659495831;-1,80224537849426E-05;100 nA
0,241851806640625;31,6551899200783;8,404541015625E-08;0,242034912109375;1;516;0,000106706659495831;-1,80224537849426E-05;100 nA
0,239410400390625;31,704017919955;6,9122314453125E-08;0,2396240234375;1;517;0,000106706659495831;-1,80224537849426E-05;100 nA
0,236968994140625;31,7528459198318;5,609130859375E-08;0,237152099609375;1;518;0,000106706659495831;-1,80224537849426E-05;100 nA
0,234527587890625;31,8016739197085;4,39453125E-08;0,23468017578125;1;519;0,000106706659495831;-1,80224537849426E-05;100 nA
0,232086181640625;31,8505019195852;3,02734375E-08;0,23236083984375;1;520;0,000106706659495831;-1,80224537849426E-05;100 nA
0,229644775390625;31,8993299194619;1,9012451171875E-08;0,229766845703125;1;521;0,000106706659495831;-1,80224537849426E-05;100 nA
0,227203369140625;31,9481579193387;7,232666015625E-09;0,227386474609375;1;522;0,000106706659495831;-1,80224537849426E-05;100 nA
0,224761962890625;31,9969859192154;-4,150390625E-09;0,22491455078125;1;523;0,000106706659495831;-1,80224537849426E-05;100 nA
0,222320556640625;32,0458139190921;-1,446533203125E-08;0,222381591796875;1;524;0,000106706659495831;-1,80224537849426E-05;100 nA
0,219879150390625;32,0946419189688;-2,7099609375E-08;0,2200927734375;1;525;0,000106706659495831;-1,80224537849426E-05;100 nA
0,217437744140625;32,1434699188455;-3,7933349609375E-08;0,217620849609375;1;526;0,000106706659495831;-1,80224537849426E-05;100 nA
0,214996337890625;32,1922979187223;-4,949951171875E-08;0,21502685546875;1;527;0,000106706659495831;-1,80224537849426E-05;100 nA
0,212554931640625;32,241125918599;-6,2957763671875E-08;0,212615966796875;1;528;0,000106706659495831;-1,80224537849426E-05;100 nA
0,210113525390625;32,2899539184757;-7,5592041015625E-08;0,21014404296875;1;529;0,000106706659495831;-1,80224537849426E-05;100 nA
0,207672119140625;32,3387819183524;-8,50830078125E-08;0,207733154296875;1;530;0,000106706659495831;-1,80224537849426E-05;100 nA
0,205230712890625;32,3876099182291;-9,796142578125E-08;0,205230712890625;1;531;0,000106706659495831;-1,80224537849426E-05;100 nA
0,202789306640625;32,4364379181059;-1,08673095703125E-07;0,202850341796875;1;532;0,000106706659495831;-1,80224537849426E-05;100 nA
0,200347900390625;32,4852659179826;-1,18560791015625E-07;0,200347900390625;1;533;0,000106706659495831;-1,80224537849426E-05;100 nA
0,197906494140625;32,5340939178593;-1,297607421875E-07;0,19805908203125;1;534;0,000106706659495831;-1,80224537849426E-05;100 nA
0,195465087890625;32,582921917736;-1,36077880859375E-07;0,1954345703125;1;535;0,000106706659495831;-1,80224537849426E-05;100 nA
0,193023681640625;32,6317499176128;-1,4495849609375E-07;0,193084716796875;1;536;0,000106706659495831;-1,80224537849426E-05;100 nA
0,190582275390625;32,6805779174895;-1,5374755859375E-07;0,190582275390625;1;537;0,000106706659495831;-1,80224537849426E-05;100 nA
0,188140869140625;32,7294059173662;-1,6107177734375E-07;0,1881103515625;1;538;0,000106706659495831;-1,80224537849426E-05;100 nA
0,185699462890625;32,7782339172429;-1,69097900390625E-07;0,18560791015625;1;539;0,000106706659495831;-1,80224537849426E-05;100 nA
0,183258056640625;32,8270619171196;-1,7681884765625E-07;0,1832275390625;1;540;0,000106706659495831;-1,80224537849426E-05;100 nA
0,180816650390625;32,8758899169964;-1,84051513671875E-07;0,18072509765625;1;541;0,000106706659495831;-1,80224537849426E-05;100 nA
0,178375244140625;32,9247179168731;-1,93939208984375E-07;0,17828369140625;1;542;0,000106706659495831;-1,80224537849426E-05;100 nA
0,175933837890625;32,9735459167498;-2,03338623046875E-07;0,175872802734375;1;543;0,000106706659495831;-1,80224537849426E-05;100 nA
0,173492431640625;33,0223739166265;-2,1209716796875E-07;0,17340087890625;1;544;0,000106706659495831;-1,80224537849426E-05;100 nA
0,171051025390625;33,0712019165032;-2,19940185546875E-07;0,170928955078125;1;545;0,000106706659495831;-1,80224537849426E-05;100 nA
0,168609619140625;33,12002991638;-2,29248046875E-07;0,16851806640625;1;546;0,000106706659495831;-1,80224537849426E-05;100 nA
0,166168212890625;33,1688579162567;-2,36663818359375E-07;0,165985107421875;1;547;0,000106706659495831;-1,80224537849426E-05;100 nA
0,163726806640625;33,2176859161334;-2,4444580078125E-07;0,163665771484375;1;548;0,000106706659495831;-1,80224537849426E-05;100 nA
0,161285400390625;33,2665139160101;-2,51312255859375E-07;0,16119384765625;1;549;0,000106706659495831;-1,80224537849426E-05;100 nA
0,158843994140625;33,3153419158868;-2,57476806640625E-07;0,15863037109375;1;550;0,000106706659495831;-1,80224537849426E-05;100 nA
0,156402587890625;33,3641699157636;-2,65899658203125E-07;0,15625;1;551;0,000106706659495831;-1,80224537849426E-05;100 nA
0,153961181640625;33,4129979156403;-2,72186279296875E-07;0,153839111328125;1;552;0,000106706659495831;-1,80224537849426E-05;100 nA
0,151519775390625;33,461825915517;-2,80487060546875E-07;0,151336669921875;1;553;0,000106706659495831;-1,80224537849426E-05;100 nA
0,149078369140625;33,5106539153937;-2,8936767578125E-07;0,148956298828125;1;554;0,000106706659495831;-1,80224537849426E-05;100 nA
0,146636962890625;33,5594819152705;-2,9803466796875E-07;0,14654541015625;1;555;0,000106706659495831;-1,80224537849426E-05;100 nA
0,144195556640625;33,6083099151472;-3,08563232421875E-07;0,14398193359375;1;556;0,000106706659495831;-1,80224537849426E-05;100 nA
0,141754150390625;33,6571379150239;-3,1781005859375E-07;0,14154052734375;1;557;0,000106706659495831;-1,80224537849426E-05;100 nA
0,139312744140625;33,7059659149006;-3,2843017578125E-07;0,13916015625;1;558;0,000106706659495831;-1,80224537849426E-05;100 nA
0,136871337890625;33,7547939147773;-3,39508056640625E-07;0,1365966796875;1;559;0,000106706659495831;-1,80224537849426E-05;100 nA
0,134429931640625;33,8036219146541;-3,49090576171875E-07;0,13421630859375;1;560;0,000106706659495831;-1,80224537849426E-05;100 nA
0,131988525390625;33,8524499145308;-3,59344482421875E-07;0,131805419921875;1;561;0,000106706659495831;-1,80224537849426E-05;100 nA
0,129547119140625;33,9012779144075;-3,70574951171875E-07;0,12933349609375;1;562;0,000106706659495831;-1,80224537849426E-05;100 nA
0,127105712890625;33,9501059142842;-3,795166015625E-07;0,12689208984375;1;563;0,000106706659495831;-1,80224537849426E-05;100 nA
0,124664306640625;33,9989339141609;-3,90228271484375E-07;0,1243896484375;1;564;0,000106706659495831;-1,80224537849426E-05;100 nA
0,122222900390625;34,0477619140377;-4,0130615234375E-07;0,12200927734375;1;565;0,000106706659495831;-1,80224537849426E-05;100 nA
0,119781494140625;34,0965899139144;-4,11346435546875E-07;0,119537353515625;1;566;0,000106706659495831;-1,80224537849426E-05;100 nA
0,117340087890625;34,1454179137911;-4,2333984375E-07;0,11712646484375;1;567;0,000106706659495831;-1,80224537849426E-05;100 nA
0,114898681640625;34,1942459136678;-4,35791015625E-07;0,11456298828125;1;568;0,000106706659495831;-1,80224537849426E-05;100 nA
0,112457275390625;34,2430739135445;-4,476318359375E-07;0,112091064453125;1;569;0,000106706659495831;-1,80224537849426E-05;100 nA
0,110015869140625;34,2919019134213;-4,6331787109375E-07;0,109649658203125;1;570;0,000106706659495831;-1,80224537849426E-05;100 nA
0,107574462890625;34,340729913298;-4,7802734375E-07;0,10723876953125;1;571;0,000106706659495831;-1,80224537849426E-05;100 nA
0,105133056640625;34,3895579131747;-4,92095947265625E-07;0,104736328125;1;572;0,000106706659495831;-1,80224537849426E-05;100 nA
0,102691650390625;34,4383859130514;-5,07537841796875E-07;0,102294921875;1;573;0,000106706659495831;-1,80224537849426E-05;100 nA
0,100250244140625;34,4872139129282;-5,2349853515625E-07;0,09991455078125;1;574;0,000106706659495831;-1,80224537849426E-05;100 nA
0,097808837890625;34,5360419128049;-5,39154052734375E-07;0,09735107421875;1;575;0,000106706659495831;-1,80224537849426E-05;100 nA
0,095367431640625;34,5848699126816;-5,54107666015625E-07;0,094940185546875;1;576;0,000106706659495831;-1,80224537849426E-05;100 nA
0,092926025390625;34,6336979125583;-5,6964111328125E-07;0,09246826171875;1;577;0,000106706659495831;-1,80224537849426E-05;100 nA
0,090484619140625;34,682525912435;-5,850830078125E-07;0,090057373046875;1;578;0,000106706659495831;-1,80224537849426E-05;100 nA
0,088043212890625;34,7313539123118;-6,02020263671875E-07;0,087554931640625;1;579;0,000106706659495831;-1,80224537849426E-05;100 nA
0,085601806640625;34,7801819121885;-6,1798095703125E-07;0,0855712890625;1;580;0,000106706659495831;-1,80224537849426E-05;1 µA
0,083160400390625;34,8290099120652;-6,3720703125E-07;0,08306884765625;1;581;0,000106706659495831;-1,80224537849426E-05;1 µA
0,080718994140625;34,8778379119419;-6,561279296875E-07;0,080596923828125;1;582;0,000106706659495831;-1,80224537849426E-05;1 µA
0,078277587890625;34,9266659118186;-6,7291259765625E-07;0,078216552734375;1;583;0,000106706659495831;-1,80224537849426E-05;1 µA
0,075836181640625;34,9754939116954;-6,951904296875E-07;0,07574462890625;1;584;0,000106706659495831;-1,80224537849426E-05;1 µA
0,073394775390625;35,0243219115721;-7,18994140625E-07;0,073211669921875;1;585;0,000106706659495831;-1,80224537849426E-05;1 µA
0,070953369140625;35,0731499114488;-7,391357421875E-07;0,070953369140625;1;586;0,000106706659495831;-1,80224537849426E-05;1 µA
0,068511962890625;35,1219779113255;-7,6385498046875E-07;0,068359375;1;587;0,000106706659495831;-1,80224537849426E-05;1 µA
0,066070556640625;35,1708059112023;-7,84912109375E-07;0,065948486328125;1;588;0,000106706659495831;-1,80224537849426E-05;1 µA
0,063629150390625;35,219633911079;-8,0780029296875E-07;0,063568115234375;1;589;0,000106706659495831;-1,80224537849426E-05;1 µA
0,061187744140625;35,2684619109557;-8,3343505859375E-07;0,061065673828125;1;590;0,000106706659495831;-1,80224537849426E-05;1 µA
0,058746337890625;35,3172899108324;-8,5601806640625E-07;0,05865478515625;1;591;0,000106706659495831;-1,80224537849426E-05;1 µA
0,056304931640625;35,3661179107091;-8,7860107421875E-07;0,05615234375;1;592;0,000106706659495831;-1,80224537849426E-05;1 µA
0,053863525390625;35,4149459105859;-9,0606689453125E-07;0,053802490234375;1;593;0,000106706659495831;-1,80224537849426E-05;1 µA
0,051422119140625;35,4637739104626;-9,2987060546875E-07;0,05126953125;1;594;0,000106706659495831;-1,80224537849426E-05;1 µA
0,048980712890625;35,5126019103393;-9,55810546875E-07;0,04891357421875;1;595;0,000106706659495831;-1,80224537849426E-05;1 µA
0,046539306640625;35,561429910216;-9,8541259765625E-07;0,0465118408203125;1;596;0,000106706659495831;-1,80224537849426E-05;1 µA
0,044097900390625;35,6102579100927;-1,0125732421875E-06;0,04404296875;1;597;0,000106706659495831;-1,80224537849426E-05;1 µA
0,041656494140625;35,6590859099695;-1,04400634765625E-06;0,041583251953125;1;598;0,000106706659495831;-1,80224537849426E-05;1 µA
0,039215087890625;35,7079139098462;-1,0760498046875E-06;0,0391510009765625;1;599;0,000106706659495831;-1,80224537849426E-05;1 µA
0,036773681640625;35,7567419097229;-1,1053466796875E-06;0,036712646484375;1;600;0,000106706659495831;-1,80224537849426E-05;1 µA
0,034332275390625;35,8055699095996;-1,138916015625E-06;0,0342742919921875;1;601;0,000106706659495831;-1,80224537849426E-05;1 µA
0,031890869140625;35,8543979094763;-1,1724853515625E-06;0,031842041015625;1;602;0,000106706659495831;-1,80224537849426E-05;1 µA
0,029449462890625;35,9032259093531;-1,2066650390625E-06;0,0293426513671875;1;603;0,000106706659495831;-1,80224537849426E-05;1 µA
0,027008056640625;35,9520539092298;-1,2408447265625E-06;0,0269622802734375;1;604;0,000106706659495831;-1,80224537849426E-05;1 µA
0,024566650390625;36,0008819091065;-1,27716064453125E-06;0,02449951171875;1;605;0,000106706659495831;-1,80224537849426E-05;1 µA
0,022125244140625;36,0497099089832;-1,30950927734375E-06;0,0220611572265625;1;606;0,000106706659495831;-1,80224537849426E-05;1 µA
0,019683837890625;36,09853790886;-1,34857177734375E-06;0,0196319580078125;1;607;0,000106706659495831;-1,80224537849426E-05;1 µA
0,017242431640625;36,1473659087367;-1,38397216796875E-06;0,0171630859375;1;608;0,000106706659495831;-1,80224537849426E-05;1 µA
0,014801025390625;36,1961939086134;-1,42364501953125E-06;0,0147308349609375;1;609;0,000106706659495831;-1,80224537849426E-05;1 µA
0,012359619140625;36,2450219084901;-1,46514892578125E-06;0,0123199462890625;1;610;0,000106706659495831;-1,80224537849426E-05;1 µA
0,009918212890625;36,2938499083668;-1,5032958984375E-06;0,009808349609375;1;611;0,000106706659495831;-1,80224537849426E-05;1 µA
0,007476806640625;36,3426779082436;-1,54754638671875E-06;0,00736083984374999;1;612;0,000106706659495831;-1,80224537849426E-05;1 µA
0,005035400390625;36,3915059081203;-1,5924072265625E-06;0,0049285888671875;1;613;0,000106706659495831;-1,80224537849426E-05;1 µA
0,002593994140625;36,440333907997;-1,63543701171875E-06;0,002471923828125;1;614;0,000106706659495831;-1,80224537849426E-05;1 µA
0,000152587890625;36,4891619078737;-1,68304443359375E-06;3,96728515625056E-05;1;615;0,000106706659495831;-1,80224537849426E-05;1 µA
-0,002288818359375;36,5379899077504;-1,73065185546875E-06;-0,00237121582031249;1;616;0,000106706659495831;-1,80224537849426E-05;1 µA
-0,004730224609375;36,5868179076272;-1,77734375E-06;-0,00484313964843749;1;617;0,000106706659495831;-1,80224537849426E-05;1 µA
-0,007171630859375;36,6356459075039;-1,82830810546875E-06;-0,00727233886718751;1;618;0,000106706659495831;-1,80224537849426E-05;1 µA
-0,009613037109375;36,6844739073806;-1,87591552734375E-06;-0,009735107421875;1;619;0,000106706659495831;-1,80224537849426E-05;1 µA
-0,012054443359375;36,7333019072573;-1,9256591796875E-06;-0,01220703125;1;620;0,000106706659495831;-1,80224537849426E-05;1 µA
-0,014495849609375;36,782129907134;-1,9793701171875E-06;-0,0146331787109375;1;621;0,000106706659495831;-1,80224537849426E-05;1 µA
-0,016937255859375;36,8309579070108;-2,03033447265625E-06;-0,0170745849609375;1;622;0,000106706659495831;-1,80224537849426E-05;1 µA
-0,019378662109375;36,8797859068875;-2,08404541015625E-06;-0,01949462890625;1;623;0,000106706659495831;-1,80224537849426E-05;1 µA
-0,021820068359375;36,9286139067642;-2,14111328125E-06;-0,02196044921875;1;624;0,000106706659495831;-1,80224537849426E-05;1 µA
-0,024261474609375;36,9774419066409;-2,1966552734375E-06;-0,024407958984375;1;625;0,000106706659495831;-1,80224537849426E-05;1 µA
-0,026702880859375;37,0262699065177;-2,2564697265625E-06;-0,026861572265625;1;626;0,000106706659495831;-1,80224537849426E-05;1 µA
-0,029144287109375;37,0750979063944;-2,318115234375E-06;-0,029296875;1;627;0,000106706659495831;-1,80224537849426E-05;1 µA
-0,031585693359375;37,1239259062711;-2,37823486328125E-06;-0,0317596435546875;1;628;0,000106706659495831;-1,80224537849426E-05;1 µA
-0,034027099609375;37,1727539061478;-2,44354248046875E-06;-0,0341888427734375;1;629;0,000106706659495831;-1,80224537849426E-05;1 µA
-0,036468505859375;37,2215819060245;-2,50823974609375E-06;-0,036627197265625;1;630;0,000106706659495831;-1,80224537849426E-05;1 µA
-0,038909912109375;37,2704099059013;-2,57354736328125E-06;-0,0390655517578125;1;631;0,000106706659495831;-1,80224537849426E-05;1 µA
-0,041351318359375;37,319237905778;-2,64190673828125E-06;-0,0415618896484375;1;632;0,000106706659495831;-1,80224537849426E-05;1 µA
-0,043792724609375;37,3680659056547;-2,70721435546875E-06;-0,0439910888671875;1;633;0,000106706659495831;-1,80224537849426E-05;1 µA
-0,046234130859375;37,4168939055314;-2,77679443359375E-06;-0,04644775390625;1;634;0,000106706659495831;-1,80224537849426E-05;1 µA
-0,048675537109375;37,4657219054081;-2,84698486328125E-06;-0,048876953125;1;635;0,000106706659495831;-1,80224537849426E-05;1 µA
-0,051116943359375;37,5145499052849;-2,9150390625E-06;-0,051605224609375;1;636;0,000106706659495831;-1,80224537849426E-05;1 µA
-0,053558349609375;37,5633779051616;-2,987060546875E-06;-0,053955078125;1;637;0,000106706659495831;-1,80224537849426E-05;1 µA
-0,055999755859375;37,6122059050383;-3,0615234375E-06;-0,05645751953125;1;638;0,000106706659495831;-1,80224537849426E-05;1 µA
-0,058441162109375;37,661033904915;-3,13720703125E-06;-0,05889892578125;1;639;0,000106706659495831;-1,80224537849426E-05;1 µA
-0,060882568359375;37,7098619047918;-3,2183837890625E-06;-0,06134033203125;1;640;0,000106706659495831;-1,80224537849426E-05;1 µA
-0,063323974609375;37,7586899046685;-3,29559326171875E-06;-0,0638427734375;1;641;0,000106706659495831;-1,80224537849426E-05;1 µA
-0,065765380859375;37,8075179045452;-3,37615966796875E-06;-0,06622314453125;1;642;0,000106706659495831;-1,80224537849426E-05;1 µA
-0,068206787109375;37,8563459044219;-3,45947265625E-06;-0,068695068359375;1;643;0,000106706659495831;-1,80224537849426E-05;1 µA
-0,070648193359375;37,9051739042986;-3,5430908203125E-06;-0,07122802734375;1;644;0,000106706659495831;-1,80224537849426E-05;1 µA
-0,073089599609375;37,9540019041754;-3,62762451171875E-06;-0,0736083984375;1;645;0,000106706659495831;-1,80224537849426E-05;1 µA
-0,075531005859375;38,0028299040521;-3,71307373046875E-06;-0,076080322265625;1;646;0,000106706659495831;-1,80224537849426E-05;1 µA
-0,077972412109375;38,0516579039288;-3,79547119140625E-06;-0,0784912109375;1;647;0,000106706659495831;-1,80224537849426E-05;1 µA
-0,080413818359375;38,1004859038055;-3,88397216796875E-06;-0,080963134765625;1;648;0,000106706659495831;-1,80224537849426E-05;1 µA
-0,082855224609375;38,1493139036822;-3,970947265625E-06;-0,08343505859375;1;649;0,000106706659495831;-1,80224537849426E-05;1 µA
-0,085296630859375;38,198141903559;-4,06005859375E-06;-0,085845947265625;1;650;0,000106706659495831;-1,80224537849426E-05;1 µA
-0,087738037109375;38,2469699034357;-4,14947509765625E-06;-0,088348388671875;1;651;0,000106706659495831;-1,80224537849426E-05;1 µA
-0,090179443359375;38,2957979033124;-4,241943359375E-06;-0,09075927734375;1;652;0,000106706659495831;-1,80224537849426E-05;1 µA
-0,092620849609375;38,3446259031891;-4,33380126953125E-06;-0,09326171875;1;653;0,000106706659495831;-1,80224537849426E-05;1 µA
-0,095062255859375;38,3934539030658;-4,43115234375E-06;-0,095672607421875;1;654;0,000106706659495831;-1,80224537849426E-05;1 µA
-0,097503662109375;38,4422819029426;-4,527587890625E-06;-0,098114013671875;1;655;0,000106706659495831;-1,80224537849426E-05;1 µA
-0,099945068359375;38,4911099028193;-4,62371826171875E-06;-0,100616455078125;1;656;0,000106706659495831;-1,80224537849426E-05;1 µA
-0,097503662109375;38,539937902696;-4,46563720703125E-06;-0,098052978515625;1;657;0,000106706659495831;-1,80224537849426E-05;1 µA
-0,095062255859375;38,5887659025727;-4,31640625E-06;-0,095703125;1;658;0,000106706659495831;-1,80224537849426E-05;1 µA
-0,092620849609375;38,6375939024495;-4,1778564453125E-06;-0,093231201171875;1;659;0,000106706659495831;-1,80224537849426E-05;1 µA
-0,090179443359375;38,6864219023262;-4,041748046875E-06;-0,090789794921875;1;660;0,000106706659495831;-1,80224537849426E-05;1 µA
-0,087738037109375;38,7352499022029;-3,91265869140625E-06;-0,08837890625;1;661;0,000106706659495831;-1,80224537849426E-05;1 µA
-0,085296630859375;38,7840779020796;-3,78875732421875E-06;-0,085906982421875;1;662;0,000106706659495831;-1,80224537849426E-05;1 µA
-0,082855224609375;38,8329059019563;-3,66943359375E-06;-0,083404541015625;1;663;0,000106706659495831;-1,80224537849426E-05;1 µA
-0,080413818359375;38,8817339018331;-3,55621337890625E-06;-0,080963134765625;1;664;0,000106706659495831;-1,80224537849426E-05;1 µA
-0,077972412109375;38,9305619017098;-3,447265625E-06;-0,0784912109375;1;665;0,000106706659495831;-1,80224537849426E-05;1 µA
-0,075531005859375;38,9793899015865;-3,3453369140625E-06;-0,076019287109375;1;666;0,000106706659495831;-1,80224537849426E-05;1 µA
-0,073089599609375;39,0282179014632;-3,24859619140625E-06;-0,0736083984375;1;667;0,000106706659495831;-1,80224537849426E-05;1 µA
-0,070648193359375;39,0770459013399;-3,15032958984375E-06;-0,071136474609375;1;668;0,000106706659495831;-1,80224537849426E-05;1 µA
-0,068206787109375;39,1258739012167;-3,05877685546875E-06;-0,068695068359375;1;669;0,000106706659495831;-1,80224537849426E-05;1 µA
-0,065765380859375;39,1747019010934;-2,9754638671875E-06;-0,06622314453125;1;670;0,000106706659495831;-1,80224537849426E-05;1 µA
-0,063323974609375;39,2235299009701;-2,8900146484375E-06;-0,063720703125;1;671;0,000106706659495831;-1,80224537849426E-05;1 µA
-0,060882568359375;39,2723579008468;-2,8076171875E-06;-0,061248779296875;1;672;0,000106706659495831;-1,80224537849426E-05;1 µA
-0,058441162109375;39,3211859007235;-2,72552490234375E-06;-0,05889892578125;1;673;0,000106706659495831;-1,80224537849426E-05;1 µA
-0,055999755859375;39,3700139006003;-2,65045166015625E-06;-0,056427001953125;1;674;0,000106706659495831;-1,80224537849426E-05;1 µA
-0,053558349609375;39,418841900477;-2,57415771484375E-06;-0,054046630859375;1;675;0,000106706659495831;-1,80224537849426E-05;1 µA
-0,051116943359375;39,4676699003537;-2,50213623046875E-06;-0,05157470703125;1;676;0,000106706659495831;-1,80224537849426E-05;1 µA
-0,048675537109375;39,5164979002304;-2,43377685546875E-06;-0,048870849609375;1;677;0,000106706659495831;-1,80224537849426E-05;1 µA
-0,046234130859375;39,5653259001072;-2,3626708984375E-06;-0,0464263916015625;1;678;0,000106706659495831;-1,80224537849426E-05;1 µA
-0,043792724609375;39,6141538999839;-2,2955322265625E-06;-0,0439788818359375;1;679;0,000106706659495831;-1,80224537849426E-05;1 µA
-0,041351318359375;39,6629818998606;-2,235107421875E-06;-0,0414886474609375;1;680;0,000106706659495831;-1,80224537849426E-05;1 µA
-0,038909912109375;39,7118098997373;-2,171630859375E-06;-0,0390411376953125;1;681;0,000106706659495831;-1,80224537849426E-05;1 µA
-0,036468505859375;39,760637899614;-2,1142578125E-06;-0,036602783203125;1;682;0,000106706659495831;-1,80224537849426E-05;1 µA
-0,034027099609375;39,8094658994908;-2,05718994140625E-06;-0,0342071533203125;1;683;0,000106706659495831;-1,80224537849426E-05;1 µA
-0,031585693359375;39,8582938993675;-2,0025634765625E-06;-0,0317352294921875;1;684;0,000106706659495831;-1,80224537849426E-05;1 µA
-0,029144287109375;39,9071218992442;-1,9500732421875E-06;-0,029302978515625;1;685;0,000106706659495831;-1,80224537849426E-05;1 µA
-0,026702880859375;39,9559498991209;-1,8988037109375E-06;-0,02685546875;1;686;0,000106706659495831;-1,80224537849426E-05;1 µA
-0,024261474609375;40,0047778989976;-1,8475341796875E-06;-0,0243865966796875;1;687;0,000106706659495831;-1,80224537849426E-05;1 µA
-0,021820068359375;40,0536058988744;-1,79931640625E-06;-0,021954345703125;1;688;0,000106706659495831;-1,80224537849426E-05;1 µA
-0,019378662109375;40,1024338987511;-1,7498779296875E-06;-0,0195281982421875;1;689;0,000106706659495831;-1,80224537849426E-05;1 µA
-0,016937255859375;40,1512618986278;-1,702880859375E-06;-0,0170379638671875;1;690;0,000106706659495831;-1,80224537849426E-05;1 µA
-0,014495849609375;40,2000898985045;-1,656494140625E-06;-0,014617919921875;1;691;0,000106706659495831;-1,80224537849426E-05;1 µA
-0,012054443359375;40,2489178983813;-1,61346435546875E-06;-0,0121734619140625;1;692;0,000106706659495831;-1,80224537849426E-05;1 µA
-0,009613037109375;40,297745898258;-1,5679931640625E-06;-0,00977783203125;1;693;0,000106706659495831;-1,80224537849426E-05;1 µA
-0,007171630859375;40,3465738981347;-1,527099609375E-06;-0,007293701171875;1;694;0,000106706659495831;-1,80224537849426E-05;1 µA
-0,004730224609375;40,3954018980114;-1,48834228515625E-06;-0,004840087890625;1;695;0,000106706659495831;-1,80224537849426E-05;1 µA
-0,002288818359375;40,4442298978881;-1,44775390625E-06;-0,00242004394531251;1;696;0,000106706659495831;-1,80224537849426E-05;1 µA
0,000152587890625;40,4930578977649;-1,40899658203125E-06;5,49316406250056E-05;1;697;0,000106706659495831;-1,80224537849426E-05;1 µA
