##TITLE=No Description
##DATA TYPE=INFRARED SPECTRUM
##XUNITS=1/CM
##YUNITS=%T
399,452061  	26,514635 
400,888939  	25,460415 
402,325817  	27,398998 
403,762695  	27,377718 
405,199573  	25,654301 
406,636451  	27,203104 
408,073328  	27,324288 
409,510206  	27,296214 
410,947084  	28,048712 
412,383962  	26,997522 
413,820840  	27,904411 
415,257718  	28,381626 
416,694596  	27,462953 
418,131474  	28,833402 
419,568352  	28,770149 
421,005230  	28,920437 
422,442108  	30,406255 
423,878986  	30,336822 
425,315863  	31,072604 
426,752741  	31,596045 
428,189619  	30,862102 
429,626497  	31,171041 
431,063375  	31,233682 
432,500253  	32,020176 
433,937131  	33,165664 
435,374009  	32,431218 
436,810887  	33,138000 
438,247765  	34,093269 
439,684643  	33,717624 
441,121521  	34,558818 
442,558398  	34,712082 
443,995276  	34,257077 
445,432154  	35,107588 
446,869032  	35,104253 
448,305910  	35,397186 
449,742788  	35,982493 
451,179666  	35,809981 
452,616544  	36,671805 
454,053422  	37,083049 
455,490300  	36,876072 
456,927178  	37,789920 
458,364056  	38,078766 
459,800933  	37,890338 
461,237811  	38,131361 
462,674689  	38,452830 
464,111567  	39,321760 
465,548445  	39,524227 
466,985323  	39,733042 
468,422201  	40,703212 
469,859079  	40,767418 
471,295957  	40,890296 
472,732835  	41,211454 
474,169713  	40,950689 
475,606591  	41,533235 
477,043469  	41,849303 
478,480346  	41,582721 
479,917224  	42,125587 
481,354102  	42,510786 
482,790980  	43,063421 
484,227858  	43,775953 
485,664736  	43,432864 
487,101614  	43,497063 
488,538492  	44,009387 
489,975370  	44,124955 
491,412248  	44,505528 
492,849126  	44,668285 
494,286004  	44,626256 
495,722881  	44,768438 
497,159759  	44,592228 
498,596637  	44,820373 
500,033515  	45,426682 
501,470393  	45,599250 
502,907271  	45,813796 
504,344149  	46,046222 
505,781027  	46,078078 
507,217905  	46,115745 
508,654783  	46,205621 
510,091661  	46,575976 
511,528539  	46,835490 
512,965416  	46,671958 
514,402294  	46,610724 
515,839172  	46,627079 
517,276050  	46,729521 
518,712928  	46,870706 
520,149806  	46,776129 
521,586684  	47,030325 
523,023562  	47,397078 
524,460440  	47,254485 
525,897318  	47,137077 
527,334196  	47,261939 
528,771074  	47,273953 
530,207951  	47,100085 
531,644829  	46,932129 
533,081707  	47,221310 
534,518585  	47,508636 
535,955463  	47,292864 
537,392341  	47,111341 
538,829219  	47,104016 
540,266097  	47,147511 
541,702975  	47,162673 
543,139853  	46,937849 
544,576731  	46,856225 
546,013609  	46,878915 
547,450486  	46,693619 
548,887364  	46,731082 
550,324242  	46,816090 
551,761120  	46,663710 
553,197998  	46,646949 
554,634876  	46,680233 
556,071754  	46,726882 
557,508632  	46,870531 
558,945510  	46,859169 
560,382388  	46,761420 
561,819266  	46,735970 
563,256144  	46,785830 
564,693021  	46,840669 
566,129899  	46,807464 
567,566777  	46,961048 
569,003655  	47,249921 
570,440533  	47,307390 
571,877411  	47,332906 
573,314289  	47,343624 
574,751167  	47,320544 
576,188045  	47,637014 
577,624923  	48,026420 
579,061801  	48,073163 
580,498679  	48,032653 
581,935556  	48,153809 
583,372434  	48,412634 
584,809312  	48,694201 
586,246190  	48,969187 
587,683068  	49,216809 
589,119946  	49,354689 
590,556824  	49,518889 
591,993702  	49,756591 
593,430580  	49,969704 
594,867458  	50,283823 
596,304336  	50,613406 
597,741214  	50,822644 
599,178091  	51,072515 
600,614969  	51,351394 
602,051847  	51,629272 
603,488725  	51,957227 
604,925603  	52,240821 
606,362481  	52,506078 
607,799359  	52,743912 
609,236237  	53,049039 
610,673115  	53,498262 
612,109993  	53,813409 
613,546871  	54,052495 
614,983749  	54,297811 
616,420626  	54,532749 
617,857504  	54,784395 
619,294382  	55,054577 
620,731260  	55,318024 
622,168138  	55,647901 
623,605016  	55,841920 
625,041894  	55,968263 
626,478772  	56,163425 
627,915650  	56,325273 
629,352528  	56,515611 
630,789406  	56,819462 
632,226284  	56,959612 
633,663161  	57,068612 
635,100039  	57,336264 
636,536917  	57,638947 
637,973795  	57,978814 
639,410673  	58,286945 
640,847551  	58,584772 
642,284429  	58,857807 
643,721307  	59,074461 
645,158185  	59,435083 
646,595063  	59,806709 
648,031941  	60,081874 
649,468819  	60,325769 
650,905696  	60,561917 
652,342574  	60,870854 
653,779452  	61,248741 
655,216330  	61,524828 
656,653208  	61,769266 
658,090086  	61,993769 
659,526964  	62,226556 
660,963842  	62,501842 
662,400720  	62,736860 
663,837598  	62,947986 
665,274476  	63,067903 
666,711354  	63,180517 
668,148231  	63,576751 
669,585109  	63,977571 
671,021987  	64,131779 
672,458865  	64,335085 
673,895743  	64,623577 
675,332621  	64,850537 
676,769499  	65,045688 
678,206377  	65,279652 
679,643255  	65,512437 
681,080133  	65,721991 
682,517011  	65,901278 
683,953889  	66,061304 
685,390766  	66,261626 
686,827644  	66,461203 
688,264522  	66,618864 
689,701400  	66,740113 
691,138278  	66,936859 
692,575156  	67,189086 
694,012034  	67,356322 
695,448912  	67,537386 
696,885790  	67,810237 
698,322668  	68,127310 
699,759546  	68,442179 
701,196424  	68,722913 
702,633301  	68,924093 
704,070179  	69,210994 
705,507057  	69,473509 
706,943935  	69,759615 
708,380813  	70,129571 
709,817691  	70,434595 
711,254569  	70,708024 
712,691447  	70,997926 
714,128325  	71,324686 
715,565203  	71,718516 
717,002081  	72,086774 
718,438959  	72,362200 
719,875837  	72,722067 
721,312714  	73,156758 
722,749592  	73,569452 
724,186470  	73,877137 
725,623348  	74,182203 
727,060226  	74,587917 
728,497104  	74,926255 
729,933982  	75,230101 
731,370860  	75,610361 
732,807738  	75,986979 
734,244616  	76,415112 
735,681494  	76,850728 
737,118372  	77,260380 
738,555249  	77,665101 
739,992127  	78,005830 
741,429005  	78,318363 
742,865883  	78,722634 
744,302761  	79,034699 
745,739639  	79,272310 
747,176517  	79,571019 
748,613395  	79,908012 
750,050273  	80,310722 
751,487151  	80,649504 
752,924029  	80,851544 
754,360907  	81,080264 
755,797784  	81,335926 
757,234662  	81,583599 
758,671540  	81,810246 
760,108418  	81,959171 
761,545296  	82,102965 
762,982174  	82,247432 
764,419052  	82,363952 
765,855930  	82,496955 
767,292808  	82,593141 
768,729686  	82,682023 
770,166564  	82,813709 
771,603442  	82,917847 
773,040319  	83,020415 
774,477197  	83,119922 
775,914075  	83,183919 
777,350953  	83,261651 
778,787831  	83,300614 
780,224709  	83,284606 
781,661587  	83,304119 
783,098465  	83,394103 
784,535343  	83,523532 
785,972221  	83,557951 
787,409099  	83,518866 
788,845977  	83,561928 
790,282854  	83,579830 
791,719732  	83,582843 
793,156610  	83,721089 
794,593488  	83,789642 
796,030366  	83,718874 
797,467244  	83,707639 
798,904122  	83,732238 
800,341000  	83,763329 
801,777878  	83,822826 
803,214756  	83,839892 
804,651634  	83,852912 
806,088512  	83,892915 
807,525389  	83,916324 
808,962267  	83,936555 
810,399145  	83,950454 
811,836023  	83,978651 
813,272901  	84,027451 
814,709779  	84,043193 
816,146657  	84,082659 
817,583535  	84,169381 
819,020413  	84,209897 
820,457291  	84,220350 
821,894169  	84,233462 
823,331047  	84,214501 
824,767924  	84,227454 
826,204802  	84,312081 
827,641680  	84,353634 
829,078558  	84,318740 
830,515436  	84,313735 
831,952314  	84,346829 
833,389192  	84,365678 
834,826070  	84,384188 
836,262948  	84,379251 
837,699826  	84,340608 
839,136704  	84,320839 
840,573582  	84,315188 
842,010459  	84,321301 
843,447337  	84,330025 
844,884215  	84,281416 
846,321093  	84,226015 
847,757971  	84,231848 
849,194849  	84,255574 
850,631727  	84,266125 
852,068605  	84,251062 
853,505483  	84,236826 
854,942361  	84,248522 
856,379239  	84,205604 
857,816117  	84,111420 
859,252994  	84,055515 
860,689872  	84,035099 
862,126750  	84,040352 
863,563628  	84,044198 
865,000506  	84,006921 
866,437384  	83,964819 
867,874262  	83,912215 
869,311140  	83,846006 
870,748018  	83,823375 
872,184896  	83,833317 
873,621774  	83,839710 
875,058652  	83,824153 
876,495529  	83,799577 
877,932407  	83,805299 
879,369285  	83,796231 
880,806163  	83,751849 
882,243041  	83,704861 
883,679919  	83,649291 
885,116797  	83,649430 
886,553675  	83,688508 
887,990553  	83,648365 
889,427431  	83,605680 
890,864309  	83,617555 
892,301187  	83,599569 
893,738064  	83,566184 
895,174942  	83,539653 
896,611820  	83,497139 
898,048698  	83,449885 
899,485576  	83,417309 
900,922454  	83,414987 
902,359332  	83,391444 
903,796210  	83,331613 
905,233088  	83,311121 
906,669966  	83,314233 
908,106844  	83,312422 
909,543722  	83,313290 
910,980599  	83,291104 
912,417477  	83,282995 
913,854355  	83,304816 
915,291233  	83,328453 
916,728111  	83,361805 
918,164989  	83,373129 
919,601867  	83,371985 
921,038745  	83,378031 
922,475623  	83,361538 
923,912501  	83,376451 
925,349379  	83,410433 
926,786257  	83,407013 
928,223134  	83,421674 
929,660012  	83,434946 
931,096890  	83,434805 
932,533768  	83,453116 
933,970646  	83,438759 
935,407524  	83,448465 
936,844402  	83,506958 
938,281280  	83,507749 
939,718158  	83,488954 
941,155036  	83,492736 
942,591914  	83,494059 
944,028792  	83,503680 
945,465670  	83,495736 
946,902547  	83,503329 
948,339425  	83,546092 
949,776303  	83,586496 
951,213181  	83,658457 
952,650059  	83,708670 
954,086937  	83,730586 
955,523815  	83,822643 
956,960693  	83,891570 
958,397571  	83,900896 
959,834449  	83,935429 
961,271327  	83,966518 
962,708205  	84,014811 
964,145082  	84,055653 
965,581960  	84,023829 
967,018838  	84,022883 
968,455716  	84,078442 
969,892594  	84,131670 
971,329472  	84,180630 
972,766350  	84,203601 
974,203228  	84,238918 
975,640106  	84,289274 
977,076984  	84,308604 
978,513862  	84,346115 
979,950740  	84,412456 
981,387617  	84,506134 
982,824495  	84,610312 
984,261373  	84,655951 
985,698251  	84,722258 
987,135129  	84,847573 
988,572007  	84,950264 
990,008885  	85,046534 
991,445763  	85,132245 
992,882641  	85,235492 
994,319519  	85,399344 
995,756397  	85,524126 
997,193275  	85,613827 
998,630152  	85,699760 
1000,067030  	85,735176 
1001,503908  	85,803496 
1002,940786  	85,905106 
1004,377664  	85,961063 
1005,814542  	86,020837 
1007,251420  	86,070926 
1008,688298  	86,095647 
1010,125176  	86,144963 
1011,562054  	86,198747 
1012,998932  	86,234121 
1014,435810  	86,225204 
1015,872687  	86,204339 
1017,309565  	86,233919 
1018,746443  	86,239276 
1020,183321  	86,219197 
1021,620199  	86,220132 
1023,057077  	86,174524 
1024,493955  	86,121392 
1025,930833  	86,097163 
1027,367711  	86,051362 
1028,804589  	86,013565 
1030,241467  	85,963414 
1031,678345  	85,891486 
1033,115222  	85,840270 
1034,552100  	85,781190 
1035,988978  	85,756989 
1037,425856  	85,758096 
1038,862734  	85,704700 
1040,299612  	85,670485 
1041,736490  	85,669217 
1043,173368  	85,666243 
1044,610246  	85,685364 
1046,047124  	85,675980 
1047,484002  	85,693289 
1048,920880  	85,781793 
1050,357757  	85,830274 
1051,794635  	85,881975 
1053,231513  	85,997718 
1054,668391  	86,108290 
1056,105269  	86,192784 
1057,542147  	86,259741 
1058,979025  	86,357127 
1060,415903  	86,500804 
1061,852781  	86,641861 
1063,289659  	86,785740 
1064,726537  	86,904066 
1066,163415  	87,008624 
1067,600292  	87,165553 
1069,037170  	87,319578 
1070,474048  	87,463461 
1071,910926  	87,626660 
1073,347804  	87,755342 
1074,784682  	87,860375 
1076,221560  	87,958693 
1077,658438  	88,060196 
1079,095316  	88,205446 
1080,532194  	88,342490 
1081,969072  	88,438466 
1083,405950  	88,528678 
1084,842827  	88,615715 
1086,279705  	88,694510 
1087,716583  	88,765009 
1089,153461  	88,847254 
1090,590339  	88,917960 
1092,027217  	88,954721 
1093,464095  	89,046408 
1094,900973  	89,162669 
1096,337851  	89,220583 
1097,774729  	89,288982 
1099,211607  	89,343810 
1100,648485  	89,362996 
1102,085362  	89,418786 
1103,522240  	89,445719 
1104,959118  	89,437233 
1106,395996  	89,468996 
1107,832874  	89,500370 
1109,269752  	89,523691 
1110,706630  	89,547598 
1112,143508  	89,568364 
1113,580386  	89,598699 
1115,017264  	89,585314 
1116,454142  	89,547699 
1117,891020  	89,534930 
1119,327897  	89,534392 
1120,764775  	89,580760 
1122,201653  	89,626925 
1123,638531  	89,657402 
1125,075409  	89,764001 
1126,512287  	89,875191 
1127,949165  	89,980443 
1129,386043  	90,157431 
1130,822921  	90,326041 
1132,259799  	90,497399 
1133,696677  	90,712641 
1135,133555  	90,917401 
1136,570432  	91,134879 
1138,007310  	91,338324 
1139,444188  	91,499285 
1140,881066  	91,676782 
1142,317944  	91,847923 
1143,754822  	92,008499 
1145,191700  	92,184141 
1146,628578  	92,326085 
1148,065456  	92,448469 
1149,502334  	92,591303 
1150,939212  	92,723915 
1152,376090  	92,831515 
1153,812967  	92,934471 
1155,249845  	93,038675 
1156,686723  	93,131481 
1158,123601  	93,223658 
1159,560479  	93,319811 
1160,997357  	93,395758 
1162,434235  	93,475285 
1163,871113  	93,566596 
1165,307991  	93,639431 
1166,744869  	93,717040 
1168,181747  	93,795221 
1169,618625  	93,860362 
1171,055502  	93,953559 
1172,492380  	94,061587 
1173,929258  	94,158724 
1175,366136  	94,250708 
1176,803014  	94,333307 
1178,239892  	94,427069 
1179,676770  	94,520547 
1181,113648  	94,599667 
1182,550526  	94,696039 
1183,987404  	94,776047 
1185,424282  	94,829292 
1186,861160  	94,921155 
1188,298038  	95,042741 
1189,734915  	95,151302 
1191,171793  	95,242975 
1192,608671  	95,331353 
1194,045549  	95,429541 
1195,482427  	95,519533 
1196,919305  	95,602108 
1198,356183  	95,693678 
1199,793061  	95,787613 
1201,229939  	95,892488 
1202,666817  	95,991206 
1204,103695  	96,073337 
1205,540573  	96,185078 
1206,977450  	96,308463 
1208,414328  	96,391538 
1209,851206  	96,455880 
1211,288084  	96,541689 
1212,724962  	96,652747 
1214,161840  	96,755751 
1215,598718  	96,834843 
1217,035596  	96,910608 
1218,472474  	96,993046 
1219,909352  	97,089823 
1221,346230  	97,181635 
1222,783108  	97,241007 
1224,219985  	97,298063 
1225,656863  	97,365972 
1227,093741  	97,438947 
1228,530619  	97,532708 
1229,967497  	97,615091 
1231,404375  	97,665756 
1232,841253  	97,722998 
1234,278131  	97,789948 
1235,715009  	97,850691 
1237,151887  	97,916644 
1238,588765  	97,979235 
1240,025643  	98,015357 
1241,462520  	98,052133 
1242,899398  	98,115389 
1244,336276  	98,171980 
1245,773154  	98,225350 
1247,210032  	98,284733 
1248,646910  	98,300877 
1250,083788  	98,302874 
1251,520666  	98,337850 
1252,957544  	98,358057 
1254,394422  	98,347089 
1255,831300  	98,328382 
1257,268178  	98,324929 
1258,705055  	98,354256 
1260,141933  	98,379948 
1261,578811  	98,398222 
1263,015689  	98,441324 
1264,452567  	98,489844 
1265,889445  	98,539566 
1267,326323  	98,592952 
1268,763201  	98,642911 
1270,200079  	98,697883 
1271,636957  	98,731188 
1273,073835  	98,747544 
1274,510713  	98,772353 
1275,947590  	98,788478 
1277,384468  	98,817275 
1278,821346  	98,850484 
1280,258224  	98,852953 
1281,695102  	98,857799 
1283,131980  	98,858502 
1284,568858  	98,842235 
1286,005736  	98,827911 
1287,442614  	98,803792 
1288,879492  	98,809739 
1290,316370  	98,844397 
1291,753248  	98,842158 
1293,190125  	98,834750 
1294,627003  	98,831383 
1296,063881  	98,816991 
1297,500759  	98,827151 
1298,937637  	98,825764 
1300,374515  	98,807702 
1301,811393  	98,796203 
1303,248271  	98,793917 
1304,685149  	98,774290 
1306,122027  	98,757251 
1307,558905  	98,734414 
1308,995783  	98,753146 
1310,432660  	98,769253 
1311,869538  	98,750532 
1313,306416  	98,742291 
1314,743294  	98,735165 
1316,180172  	98,719431 
1317,617050  	98,697157 
1319,053928  	98,694706 
1320,490806  	98,738350 
1321,927684  	98,752042 
1323,364562  	98,741549 
1324,801440  	98,766009 
1326,238318  	98,771468 
1327,675195  	98,758959 
1329,112073  	98,759428 
1330,548951  	98,751395 
1331,985829  	98,753304 
1333,422707  	98,736421 
1334,859585  	98,694999 
1336,296463  	98,655992 
1337,733341  	98,618439 
1339,170219  	98,580880 
1340,607097  	98,588253 
1342,043975  	98,606443 
1343,480853  	98,602572 
1344,917730  	98,567640 
1346,354608  	98,538882 
1347,791486  	98,512621 
1349,228364  	98,477243 
1350,665242  	98,471783 
1352,102120  	98,461222 
1353,538998  	98,427705 
1354,975876  	98,405275 
1356,412754  	98,380858 
1357,849632  	98,353604 
1359,286510  	98,330959 
1360,723388  	98,277995 
1362,160265  	98,203946 
1363,597143  	98,178585 
1365,034021  	98,176320 
1366,470899  	98,109983 
1367,907777  	98,012492 
1369,344655  	97,933168 
1370,781533  	97,888250 
1372,218411  	97,795831 
1373,655289  	97,679901 
1375,092167  	97,634175 
1376,529045  	97,605642 
1377,965923  	97,552268 
1379,402800  	97,511371 
1380,839678  	97,481339 
1382,276556  	97,491763 
1383,713434  	97,512355 
1385,150312  	97,501122 
1386,587190  	97,477948 
1388,024068  	97,490830 
1389,460946  	97,513546 
1390,897824  	97,528719 
1392,334702  	97,524728 
1393,771580  	97,536401 
1395,208458  	97,555983 
1396,645335  	97,570981 
1398,082213  	97,569099 
1399,519091  	97,594170 
1400,955969  	97,623245 
1402,392847  	97,620148 
1403,829725  	97,563524 
1405,266603  	97,510760 
1406,703481  	97,475565 
1408,140359  	97,417676 
1409,577237  	97,342006 
1411,014115  	97,262327 
1412,450993  	97,197213 
1413,887871  	97,139489 
1415,324748  	97,035768 
1416,761626  	96,890323 
1418,198504  	96,783302 
1419,635382  	96,788884 
1421,072260  	96,776596 
1422,509138  	96,662912 
1423,946016  	96,570479 
1425,382894  	96,515546 
1426,819772  	96,436985 
1428,256650  	96,379713 
1429,693528  	96,333212 
1431,130406  	96,292732 
1432,567283  	96,209360 
1434,004161  	96,068722 
1435,441039  	96,031291 
1436,877917  	96,143582 
1438,314795  	96,173125 
1439,751673  	96,088974 
1441,188551  	96,137246 
1442,625429  	96,233840 
1444,062307  	96,315640 
1445,499185  	96,375804 
1446,936063  	96,435027 
1448,372941  	96,598907 
1449,809818  	96,689026 
1451,246696  	96,692396 
1452,683574  	96,765043 
1454,120452  	96,768813 
1455,557330  	96,786722 
1456,994208  	96,903870 
1458,431086  	96,995805 
1459,867964  	96,969739 
1461,304842  	97,011689 
1462,741720  	97,046924 
1464,178598  	97,142394 
1465,615476  	97,279791 
1467,052353  	97,314890 
1468,489231  	97,339829 
1469,926109  	97,334172 
1471,362987  	97,320026 
1472,799865  	97,468279 
1474,236743  	97,638599 
1475,673621  	97,610944 
1477,110499  	97,628299 
1478,547377  	97,660159 
1479,984255  	97,670719 
1481,421133  	97,763941 
1482,858011  	97,903931 
1484,294888  	97,945076 
1485,731766  	97,915428 
1487,168644  	97,860819 
1488,605522  	97,790359 
1490,042400  	97,776742 
1491,479278  	97,872523 
1492,916156  	97,863166 
1494,353034  	97,804556 
1495,789912  	97,801270 
1497,226790  	97,843386 
1498,663668  	97,865411 
1500,100546  	97,869617 
1501,537423  	97,845261 
1502,974301  	97,784260 
1504,411179  	97,748631 
1505,848057  	97,759393 
1507,284935  	97,668667 
1508,721813  	97,556319 
1510,158691  	97,460233 
1511,595569  	97,444784 
1513,032447  	97,427668 
1514,469325  	97,349324 
1515,906203  	97,294442 
1517,343081  	97,309837 
1518,779958  	97,256266 
1520,216836  	97,159794 
1521,653714  	97,141041 
1523,090592  	97,138312 
1524,527470  	97,031307 
1525,964348  	96,966198 
1527,401226  	96,894169 
1528,838104  	96,853244 
1530,274982  	96,866154 
1531,711860  	96,828697 
1533,148738  	96,830943 
1534,585616  	96,924774 
1536,022493  	96,876950 
1537,459371  	96,855172 
1538,896249  	96,876490 
1540,333127  	96,829425 
1541,770005  	96,815535 
1543,206883  	96,716394 
1544,643761  	96,639427 
1546,080639  	96,670813 
1547,517517  	96,637782 
1548,954395  	96,593604 
1550,391273  	96,602060 
1551,828151  	96,609177 
1553,265028  	96,618778 
1554,701906  	96,579240 
1556,138784  	96,513217 
1557,575662  	96,470771 
1559,012540  	96,330216 
1560,449418  	96,542091 
1561,886296  	96,452651 
1563,323174  	96,334610 
1564,760052  	96,313151 
1566,196930  	96,293529 
1567,633808  	96,246720 
1569,070686  	96,240800 
1570,507563  	96,301104 
1571,944441  	96,269194 
1573,381319  	96,164910 
1574,818197  	96,120863 
1576,255075  	96,140601 
1577,691953  	96,098343 
1579,128831  	96,002107 
1580,565709  	95,936262 
1582,002587  	95,859006 
1583,439465  	95,803645 
1584,876343  	95,751396 
1586,313221  	95,668804 
1587,750098  	95,589870 
1589,186976  	95,304111 
1590,623854  	95,032687 
1592,060732  	94,733786 
1593,497610  	94,458258 
1594,934488  	94,527783 
1596,371366  	94,593937 
1597,808244  	94,662929 
1599,245122  	94,736285 
1600,682000  	94,603593 
1602,118878  	94,428864 
1603,555756  	94,265663 
1604,992633  	94,072027 
1606,429511  	93,879746 
1607,866389  	93,709017 
1609,303267  	93,531186 
1610,740145  	93,368584 
1612,177023  	93,201892 
1613,613901  	92,991822 
1615,050779  	92,838317 
1616,487657  	92,749530 
1617,924535  	92,633856 
1619,361413  	92,377662 
1620,798291  	92,123009 
1622,235168  	91,991291 
1623,672046  	91,918796 
1625,108924  	91,834814 
1626,545802  	91,719394 
1627,982680  	91,615504 
1629,419558  	91,590903 
1630,856436  	91,554955 
1632,293314  	91,442766 
1633,730192  	91,371472 
1635,167070  	91,353135 
1636,603948  	91,323265 
1638,040826  	91,228270 
1639,477703  	91,106958 
1640,914581  	91,079233 
1642,351459  	90,977417 
1643,788337  	90,797617 
1645,225215  	90,738599 
1646,662093  	90,787087 
1648,098971  	90,755705 
1649,535849  	90,525909 
1650,972727  	90,309560 
1652,409605  	90,314895 
1653,846483  	90,839936 
1655,283361  	90,935875 
1656,720239  	90,939431 
1658,157116  	91,269312 
1659,593994  	91,622593 
1661,030872  	92,015004 
1662,467750  	92,472203 
1663,904628  	92,943392 
1665,341506  	93,318953 
1666,778384  	93,579000 
1668,215262  	93,863330 
1669,652140  	94,235317 
1671,089018  	94,587444 
1672,525896  	94,849646 
1673,962774  	95,103589 
1675,399651  	95,408939 
1676,836529  	95,717888 
1678,273407  	95,918461 
1679,710285  	96,084625 
1681,147163  	96,254034 
1682,584041  	96,359967 
1684,020919  	96,513711 
1685,457797  	96,830181 
1686,894675  	96,874275 
1688,331553  	96,922687 
1689,768431  	97,073037 
1691,205309  	97,266944 
1692,642186  	97,406176 
1694,079064  	97,498322 
1695,515942  	97,676335 
1696,952820  	97,798107 
1698,389698  	97,722476 
1699,826576  	97,856293 
1701,263454  	98,097227 
1702,700332  	97,965407 
1704,137210  	97,934755 
1705,574088  	98,047617 
1707,010966  	98,137741 
1708,447844  	98,240177 
1709,884721  	98,329151 
1711,321599  	98,388715 
1712,758477  	98,480882 
1714,195355  	98,513491 
1715,632233  	98,546340 
1717,069111  	98,648943 
1718,505989  	98,745568 
1719,942867  	98,795480 
1721,379745  	98,724779 
1722,816623  	98,713984 
1724,253501  	98,847680 
1725,690379  	98,969782 
1727,127256  	99,038746 
1728,564134  	99,063800 
1730,001012  	99,057617 
1731,437890  	99,048761 
1732,874768  	99,105575 
1734,311646  	99,224121 
1735,748524  	99,279537 
1737,185402  	99,140523 
1738,622280  	99,126122 
1740,059158  	99,225556 
1741,496036  	99,203871 
1742,932914  	99,131793 
1744,369791  	99,148947 
1745,806669  	99,187254 
1747,243547  	99,189447 
1748,680425  	99,161240 
1750,117303  	99,196462 
1751,554181  	99,265620 
1752,991059  	99,243167 
1754,427937  	99,218388 
1755,864815  	99,240332 
1757,301693  	99,251384 
1758,738571  	99,274931 
1760,175449  	99,295772 
1761,612326  	99,327867 
1763,049204  	99,371357 
1764,486082  	99,366261 
1765,922960  	99,348252 
1767,359838  	99,361972 
1768,796716  	99,346605 
1770,233594  	99,325765 
1771,670472  	99,359020 
1773,107350  	99,418080 
1774,544228  	99,404864 
1775,981106  	99,367803 
1777,417984  	99,387885 
1778,854861  	99,396207 
1780,291739  	99,372572 
1781,728617  	99,396213 
1783,165495  	99,411587 
1784,602373  	99,419301 
1786,039251  	99,449431 
1787,476129  	99,454182 
1788,913007  	99,428368 
1790,349885  	99,379732 
1791,786763  	99,384989 
1793,223641  	99,472801 
1794,660519  	99,407257 
1796,097396  	99,337029 
1797,534274  	99,389028 
1798,971152  	99,363337 
1800,408030  	99,335369 
1801,844908  	99,404228 
1803,281786  	99,442429 
1804,718664  	99,481613 
1806,155542  	99,495726 
1807,592420  	99,466026 
1809,029298  	99,485679 
1810,466176  	99,486298 
1811,903054  	99,486223 
1813,339931  	99,529899 
1814,776809  	99,553317 
1816,213687  	99,577869 
1817,650565  	99,596826 
1819,087443  	99,600444 
1820,524321  	99,628866 
1821,961199  	99,613637 
1823,398077  	99,549931 
1824,834955  	99,536253 
1826,271833  	99,551180 
1827,708711  	99,530916 
1829,145589  	99,495030 
1830,582466  	99,503904 
1832,019344  	99,551283 
1833,456222  	99,529642 
1834,893100  	99,523775 
1836,329978  	99,543500 
1837,766856  	99,484654 
1839,203734  	99,486186 
1840,640612  	99,529721 
1842,077490  	99,497470 
1843,514368  	99,511582 
1844,951246  	99,573388 
1846,388124  	99,507492 
1847,825001  	99,446793 
1849,261879  	99,454634 
1850,698757  	99,476201 
1852,135635  	99,502457 
1853,572513  	99,501439 
1855,009391  	99,527938 
1856,446269  	99,535113 
1857,883147  	99,507344 
1859,320025  	99,503726 
1860,756903  	99,509411 
1862,193781  	99,506560 
1863,630659  	99,479528 
1865,067536  	99,424621 
1866,504414  	99,420882 
1867,941292  	99,443268 
1869,378170  	99,453017 
1870,815048  	99,483207 
1872,251926  	99,458668 
1873,688804  	99,484549 
1875,125682  	99,574352 
1876,562560  	99,578333 
1877,999438  	99,544330 
1879,436316  	99,517894 
1880,873194  	99,493883 
1882,310072  	99,525987 
1883,746949  	99,506969 
1885,183827  	99,496745 
1886,620705  	99,577141 
1888,057583  	99,580013 
1889,494461  	99,552521 
1890,931339  	99,544652 
1892,368217  	99,467533 
1893,805095  	99,454445 
1895,241973  	99,477199 
1896,678851  	99,491826 
1898,115729  	99,532363 
1899,552607  	99,592471 
1900,989484  	99,610387 
1902,426362  	99,613873 
1903,863240  	99,606009 
1905,300118  	99,587906 
1906,736996  	99,565268 
1908,173874  	99,582356 
1909,610752  	99,630499 
1911,047630  	99,612424 
1912,484508  	99,567501 
1913,921386  	99,604151 
1915,358264  	99,535676 
1916,795142  	99,481508 
1918,232019  	99,493377 
1919,668897  	99,511850 
1921,105775  	99,492511 
1922,542653  	99,476543 
1923,979531  	99,519235 
1925,416409  	99,606323 
1926,853287  	99,625802 
1928,290165  	99,640257 
1929,727043  	99,636913 
1931,163921  	99,552916 
1932,600799  	99,567339 
1934,037677  	99,651910 
1935,474554  	99,663251 
1936,911432  	99,575943 
1938,348310  	99,512872 
1939,785188  	99,624456 
1941,222066  	99,693863 
1942,658944  	99,671985 
1944,095822  	99,790948 
1945,532700  	99,784927 
1946,969578  	99,665268 
1948,406456  	99,708828 
1949,843334  	99,869751 
1951,280212  	99,913804 
1952,717089  	99,830405 
1954,153967  	99,824040 
1955,590845  	100,025378 
1957,027723  	100,074502 
1958,464601  	99,966798 
1959,901479  	99,978610 
1961,338357  	100,106291 
1962,775235  	100,205019 
1964,212113  	99,999800 
1965,648991  	99,753764 
1967,085869  	99,790968 
1968,522747  	99,791497 
1969,959624  	99,970822 
1971,396502  	100,277522 
1972,833380  	100,128833 
1974,270258  	99,999184 
1975,707136  	99,992531 
1977,144014  	99,823349 
1978,580892  	99,867443 
1980,017770  	99,729422 
1981,454648  	99,427259 
1982,891526  	99,549506 
1984,328404  	99,663602 
1985,765282  	99,683854 
1987,202159  	99,848312 
1988,639037  	99,778252 
1990,075915  	99,583649 
1991,512793  	99,497527 
1992,949671  	99,441178 
1994,386549  	99,533590 
1995,823427  	99,765759 
1997,260305  	99,927928 
1998,697183  	99,895337 
2000,134061  	99,819502 
2001,570939  	99,894327 
2003,007817  	99,919403 
2004,444694  	99,880605 
2005,881572  	99,979263 
2007,318450  	99,958688 
2008,755328  	99,926281 
2010,192206  	99,914498 
2011,629084  	99,792994 
2013,065962  	100,018168 
2014,502840  	100,224758 
2015,939718  	100,018718 
2017,376596  	99,966438 
2018,813474  	99,846692 
2020,250352  	99,670223 
2021,687229  	99,967502 
2023,124107  	100,138265 
2024,560985  	99,938061 
2025,997863  	99,724123 
2027,434741  	99,614573 
2028,871619  	99,798994 
2030,308497  	99,972717 
2031,745375  	99,999590 
2033,182253  	100,114551 
2034,619131  	99,892250 
2036,056009  	99,464218 
2037,492887  	99,348899 
2038,929764  	99,336258 
2040,366642  	99,295977 
2041,803520  	99,344463 
2043,240398  	99,578759 
2044,677276  	99,764691 
2046,114154  	99,499902 
2047,551032  	99,358411 
2048,987910  	99,550492 
2050,424788  	99,427029 
2051,861666  	99,323180 
2053,298544  	99,509286 
2054,735422  	99,556420 
2056,172299  	99,518224 
2057,609177  	99,560576 
2059,046055  	99,560725 
2060,482933  	99,578880 
2061,919811  	99,647058 
2063,356689  	99,539835 
2064,793567  	99,253086 
2066,230445  	99,221502 
2067,667323  	99,403609 
2069,104201  	99,362427 
2070,541079  	99,323328 
2071,977957  	99,421795 
2073,414834  	99,369626 
2074,851712  	99,294332 
2076,288590  	99,264505 
2077,725468  	99,276578 
2079,162346  	99,451253 
2080,599224  	99,484249 
2082,036102  	99,298142 
2083,472980  	99,190460 
2084,909858  	99,259915 
2086,346736  	99,479248 
2087,783614  	99,560778 
2089,220492  	99,453632 
2090,657369  	99,453340 
2092,094247  	99,358232 
2093,531125  	99,232471 
2094,968003  	99,431248 
2096,404881  	99,551128 
2097,841759  	99,470267 
2099,278637  	99,515963 
2100,715515  	99,560808 
2102,152393  	99,538587 
2103,589271  	99,480955 
2105,026149  	99,428151 
2106,463027  	99,456990 
2107,899904  	99,408375 
2109,336782  	99,373763 
2110,773660  	99,453541 
2112,210538  	99,395811 
2113,647416  	99,311426 
2115,084294  	99,314026 
2116,521172  	99,271270 
2117,958050  	99,327614 
2119,394928  	99,488855 
2120,831806  	99,601791 
2122,268684  	99,665615 
2123,705562  	99,665798 
2125,142440  	99,668009 
2126,579317  	99,718679 
2128,016195  	99,810780 
2129,453073  	99,913528 
2130,889951  	99,834183 
2132,326829  	99,680596 
2133,763707  	99,645402 
2135,200585  	99,572276 
2136,637463  	99,557978 
2138,074341  	99,689733 
2139,511219  	99,794354 
2140,948097  	99,895373 
2142,384975  	99,915104 
2143,821852  	99,897109 
2145,258730  	99,905259 
2146,695608  	99,801223 
2148,132486  	99,781295 
2149,569364  	99,734650 
2151,006242  	99,476529 
2152,443120  	99,466854 
2153,879998  	99,650358 
2155,316876  	99,803191 
2156,753754  	99,962859 
2158,190632  	99,677599 
2159,627510  	99,327451 
2161,064387  	99,359959 
2162,501265  	99,258538 
2163,938143  	99,152021 
2165,375021  	99,056695 
2166,811899  	98,919718 
2168,248777  	98,953151 
2169,685655  	98,948726 
2171,122533  	99,090563 
2172,559411  	99,341713 
2173,996289  	99,317192 
2175,433167  	99,414710 
2176,870045  	99,430828 
2178,306922  	99,097527 
2179,743800  	99,065839 
2181,180678  	99,180852 
2182,617556  	99,234856 
2184,054434  	99,416430 
2185,491312  	99,326649 
2186,928190  	99,254374 
2188,365068  	99,491224 
2189,801946  	99,523654 
2191,238824  	99,428289 
2192,675702  	99,428776 
2194,112580  	99,462811 
2195,549457  	99,486220 
2196,986335  	99,296816 
2198,423213  	99,150881 
2199,860091  	99,375195 
2201,296969  	99,626009 
2202,733847  	99,673849 
2204,170725  	99,572602 
2205,607603  	99,475492 
2207,044481  	99,486060 
2208,481359  	99,505638 
2209,918237  	99,577840 
2211,355115  	99,687646 
2212,791992  	99,696605 
2214,228870  	99,649012 
2215,665748  	99,509381 
2217,102626  	99,358169 
2218,539504  	99,430305 
2219,976382  	99,611168 
2221,413260  	99,682344 
2222,850138  	99,660596 
2224,287016  	99,738709 
2225,723894  	99,808889 
2227,160772  	99,628045 
2228,597650  	99,627533 
2230,034527  	99,864290 
2231,471405  	99,743033 
2232,908283  	99,521542 
2234,345161  	99,478289 
2235,782039  	99,403238 
2237,218917  	99,514867 
2238,655795  	99,615186 
2240,092673  	99,380878 
2241,529551  	99,342659 
2242,966429  	99,641011 
2244,403307  	99,815273 
2245,840185  	99,754854 
2247,277062  	99,651189 
2248,713940  	99,603246 
2250,150818  	99,509085 
2251,587696  	99,419252 
2253,024574  	99,440176 
2254,461452  	99,427203 
2255,898330  	99,367884 
2257,335208  	99,365724 
2258,772086  	99,277323 
2260,208964  	99,245480 
2261,645842  	99,286361 
2263,082720  	99,211143 
2264,519597  	99,192989 
2265,956475  	99,183629 
2267,393353  	99,060397 
2268,830231  	99,067718 
2270,267109  	99,123340 
2271,703987  	99,076719 
2273,140865  	99,083563 
2274,577743  	99,143418 
2276,014621  	99,181629 
2277,451499  	99,162324 
2278,888377  	99,108351 
2280,325255  	99,114411 
2281,762132  	99,135913 
2283,199010  	99,152672 
2284,635888  	99,204283 
2286,072766  	99,256468 
2287,509644  	99,314735 
2288,946522  	99,373858 
2290,383400  	99,409541 
2291,820278  	99,469657 
2293,257156  	99,495371 
2294,694034  	99,507491 
2296,130912  	99,564963 
2297,567790  	99,553350 
2299,004667  	99,521841 
2300,441545  	99,587927 
2301,878423  	99,657239 
2303,315301  	99,675111 
2304,752179  	99,662585 
2306,189057  	99,675922 
2307,625935  	99,721214 
2309,062813  	99,708656 
2310,499691  	99,693945 
2311,936569  	99,721228 
2313,373447  	99,713505 
2314,810325  	99,738179 
2316,247202  	99,753017 
2317,684080  	99,724871 
2319,120958  	99,714707 
2320,557836  	99,717777 
2321,994714  	99,736172 
2323,431592  	99,781550 
2324,868470  	99,842189 
2326,305348  	99,932920 
2327,742226  	99,954517 
2329,179104  	99,927315 
2330,615982  	99,897140 
2332,052860  	99,829837 
2333,489737  	99,768476 
2334,926615  	99,800506 
2336,363493  	99,810900 
2337,800371  	99,782897 
2339,237249  	99,746262 
2340,674127  	99,748405 
2342,111005  	99,780373 
2343,547883  	99,766727 
2344,984761  	99,792646 
2346,421639  	99,896141 
2347,858517  	100,005805 
2349,295395  	100,088424 
2350,732273  	100,022233 
2352,169150  	99,930994 
2353,606028  	99,846091 
2355,042906  	99,755434 
2356,479784  	99,735775 
2357,916662  	99,684438 
2359,353540  	99,528361 
2360,790418  	99,476588 
2362,227296  	99,419554 
2363,664174  	99,187101 
2365,101052  	99,040674 
2366,537930  	98,967509 
2367,974808  	98,875017 
2369,411685  	98,920365 
2370,848563  	98,975306 
2372,285441  	98,982688 
2373,722319  	99,024222 
2375,159197  	99,087350 
2376,596075  	99,164552 
2378,032953  	99,223776 
2379,469831  	99,267329 
2380,906709  	99,314674 
2382,343587  	99,351140 
2383,780465  	99,390096 
2385,217343  	99,432657 
2386,654220  	99,452438 
2388,091098  	99,511712 
2389,527976  	99,570207 
2390,964854  	99,597368 
2392,401732  	99,622665 
2393,838610  	99,630709 
2395,275488  	99,659007 
2396,712366  	99,684162 
2398,149244  	99,663329 
2399,586122  	99,684091 
2401,023000  	99,695927 
2402,459878  	99,650206 
2403,896755  	99,660899 
2405,333633  	99,671018 
2406,770511  	99,628386 
2408,207389  	99,619964 
2409,644267  	99,608828 
2411,081145  	99,578659 
2412,518023  	99,571510 
2413,954901  	99,548288 
2415,391779  	99,506626 
2416,828657  	99,501898 
2418,265535  	99,555150 
2419,702413  	99,602299 
2421,139290  	99,612917 
2422,576168  	99,640859 
2424,013046  	99,620865 
2425,449924  	99,547659 
2426,886802  	99,555386 
2428,323680  	99,572467 
2429,760558  	99,538162 
2431,197436  	99,567912 
2432,634314  	99,608650 
2434,071192  	99,559277 
2435,508070  	99,501492 
2436,944948  	99,526871 
2438,381825  	99,583414 
2439,818703  	99,590054 
2441,255581  	99,590347 
2442,692459  	99,574207 
2444,129337  	99,508862 
2445,566215  	99,510948 
2447,003093  	99,534107 
2448,439971  	99,471441 
2449,876849  	99,450766 
2451,313727  	99,477225 
2452,750605  	99,465732 
2454,187483  	99,465859 
2455,624360  	99,463390 
2457,061238  	99,449470 
2458,498116  	99,445878 
2459,934994  	99,417595 
2461,371872  	99,392684 
2462,808750  	99,388235 
2464,245628  	99,393101 
2465,682506  	99,414640 
2467,119384  	99,421726 
2468,556262  	99,435594 
2469,993140  	99,439785 
2471,430018  	99,401509 
2472,866895  	99,421857 
2474,303773  	99,456468 
2475,740651  	99,417824 
2477,177529  	99,422462 
2478,614407  	99,439424 
2480,051285  	99,374326 
2481,488163  	99,319745 
2482,925041  	99,301388 
2484,361919  	99,305020 
2485,798797  	99,351931 
2487,235675  	99,375775 
2488,672553  	99,355302 
2490,109430  	99,343381 
2491,546308  	99,327730 
2492,983186  	99,308279 
2494,420064  	99,352236 
2495,856942  	99,401385 
2497,293820  	99,333033 
2498,730698  	99,289863 
2500,167576  	99,394081 
2501,604454  	99,450725 
2503,041332  	99,401527 
2504,478210  	99,350455 
2505,915088  	99,284888 
2507,351965  	99,254842 
2508,788843  	99,286732 
2510,225721  	99,308656 
2511,662599  	99,337060 
2513,099477  	99,352934 
2514,536355  	99,335416 
2515,973233  	99,324715 
2517,410111  	99,290201 
2518,846989  	99,271459 
2520,283867  	99,312651 
2521,720745  	99,320806 
2523,157623  	99,299656 
2524,594500  	99,298118 
2526,031378  	99,283324 
2527,468256  	99,262886 
2528,905134  	99,234206 
2530,342012  	99,190340 
2531,778890  	99,188529 
2533,215768  	99,224344 
2534,652646  	99,236128 
2536,089524  	99,231738 
2537,526402  	99,240997 
2538,963280  	99,233118 
2540,400158  	99,216249 
2541,837035  	99,228036 
2543,273913  	99,201846 
2544,710791  	99,142058 
2546,147669  	99,161358 
2547,584547  	99,210864 
2549,021425  	99,198485 
2550,458303  	99,170491 
2551,895181  	99,178028 
2553,332059  	99,197175 
2554,768937  	99,176397 
2556,205815  	99,158499 
2557,642693  	99,178390 
2559,079570  	99,156155 
2560,516448  	99,149089 
2561,953326  	99,197371 
2563,390204  	99,157099 
2564,827082  	99,098421 
2566,263960  	99,122762 
2567,700838  	99,094258 
2569,137716  	99,034076 
2570,574594  	99,051798 
2572,011472  	99,086394 
2573,448350  	99,093182 
2574,885228  	99,086447 
2576,322105  	99,057002 
2577,758983  	98,998208 
2579,195861  	98,977441 
2580,632739  	99,038489 
2582,069617  	99,056705 
2583,506495  	98,998988 
2584,943373  	98,967634 
2586,380251  	98,946584 
2587,817129  	98,939896 
2589,254007  	98,942309 
2590,690885  	98,887707 
2592,127763  	98,879785 
2593,564641  	98,938320 
2595,001518  	98,928346 
2596,438396  	98,889460 
2597,875274  	98,880207 
2599,312152  	98,886859 
2600,749030  	98,895652 
2602,185908  	98,852879 
2603,622786  	98,814792 
2605,059664  	98,830149 
2606,496542  	98,816873 
2607,933420  	98,782910 
2609,370298  	98,752030 
2610,807176  	98,720819 
2612,244053  	98,725988 
2613,680931  	98,713498 
2615,117809  	98,690732 
2616,554687  	98,737745 
2617,991565  	98,767274 
2619,428443  	98,732671 
2620,865321  	98,710275 
2622,302199  	98,687717 
2623,739077  	98,650449 
2625,175955  	98,631825 
2626,612833  	98,618718 
2628,049711  	98,603458 
2629,486588  	98,606656 
2630,923466  	98,618851 
2632,360344  	98,614758 
2633,797222  	98,595093 
2635,234100  	98,567262 
2636,670978  	98,543382 
2638,107856  	98,529372 
2639,544734  	98,497227 
2640,981612  	98,475461 
2642,418490  	98,499890 
2643,855368  	98,495517 
2645,292246  	98,461979 
2646,729123  	98,463188 
2648,166001  	98,451925 
2649,602879  	98,436004 
2651,039757  	98,456122 
2652,476635  	98,450251 
2653,913513  	98,424110 
2655,350391  	98,422893 
2656,787269  	98,425696 
2658,224147  	98,427051 
2659,661025  	98,421526 
2661,097903  	98,416438 
2662,534781  	98,426747 
2663,971658  	98,423427 
2665,408536  	98,416981 
2666,845414  	98,416749 
2668,282292  	98,394089 
2669,719170  	98,381233 
2671,156048  	98,383737 
2672,592926  	98,367069 
2674,029804  	98,358146 
2675,466682  	98,360263 
2676,903560  	98,350040 
2678,340438  	98,335888 
2679,777316  	98,322288 
2681,214193  	98,317655 
2682,651071  	98,308107 
2684,087949  	98,277758 
2685,524827  	98,257632 
2686,961705  	98,237009 
2688,398583  	98,194216 
2689,835461  	98,172219 
2691,272339  	98,175296 
2692,709217  	98,165596 
2694,146095  	98,144149 
2695,582973  	98,126219 
2697,019851  	98,117425 
2698,456728  	98,114495 
2699,893606  	98,101944 
2701,330484  	98,071306 
2702,767362  	98,041631 
2704,204240  	98,029411 
2705,641118  	98,012905 
2707,077996  	97,986586 
2708,514874  	97,981093 
2709,951752  	97,989771 
2711,388630  	97,977891 
2712,825508  	97,943129 
2714,262386  	97,907779 
2715,699263  	97,882833 
2717,136141  	97,866644 
2718,573019  	97,855100 
2720,009897  	97,833083 
2721,446775  	97,808074 
2722,883653  	97,797182 
2724,320531  	97,771510 
2725,757409  	97,745401 
2727,194287  	97,748813 
2728,631165  	97,723183 
2730,068043  	97,680049 
2731,504921  	97,675882 
2732,941798  	97,660357 
2734,378676  	97,625481 
2735,815554  	97,598530 
2737,252432  	97,563671 
2738,689310  	97,551214 
2740,126188  	97,553116 
2741,563066  	97,540396 
2742,999944  	97,534873 
2744,436822  	97,500109 
2745,873700  	97,454736 
2747,310578  	97,470879 
2748,747456  	97,479443 
2750,184333  	97,433717 
2751,621211  	97,387734 
2753,058089  	97,355182 
2754,494967  	97,334664 
2755,931845  	97,314169 
2757,368723  	97,284437 
2758,805601  	97,267277 
2760,242479  	97,258999 
2761,679357  	97,253154 
2763,116235  	97,235793 
2764,553113  	97,193370 
2765,989991  	97,160123 
2767,426868  	97,141527 
2768,863746  	97,128196 
2770,300624  	97,114096 
2771,737502  	97,064958 
2773,174380  	97,028554 
2774,611258  	97,033246 
2776,048136  	96,995220 
2777,485014  	96,943249 
2778,921892  	96,950682 
2780,358770  	96,962894 
2781,795648  	96,943289 
2783,232526  	96,911365 
2784,669403  	96,868807 
2786,106281  	96,823236 
2787,543159  	96,797056 
2788,980037  	96,788355 
2790,416915  	96,768759 
2791,853793  	96,756052 
2793,290671  	96,755280 
2794,727549  	96,706797 
2796,164427  	96,644273 
2797,601305  	96,631928 
2799,038183  	96,630461 
2800,475061  	96,614859 
2801,911938  	96,584224 
2803,348816  	96,553694 
2804,785694  	96,554326 
2806,222572  	96,530894 
2807,659450  	96,465205 
2809,096328  	96,422763 
2810,533206  	96,399992 
2811,970084  	96,375334 
2813,406962  	96,337212 
2814,843840  	96,280792 
2816,280718  	96,242704 
2817,717596  	96,211453 
2819,154474  	96,183493 
2820,591351  	96,185189 
2822,028229  	96,166530 
2823,465107  	96,123080 
2824,901985  	96,096024 
2826,338863  	96,064229 
2827,775741  	96,031377 
2829,212619  	95,996137 
2830,649497  	95,933332 
2832,086375  	95,876157 
2833,523253  	95,854980 
2834,960131  	95,855501 
2836,397009  	95,844740 
2837,833886  	95,819231 
2839,270764  	95,793799 
2840,707642  	95,733179 
2842,144520  	95,663059 
2843,581398  	95,645240 
2845,018276  	95,630623 
2846,455154  	95,602412 
2847,892032  	95,591599 
2849,328910  	95,578463 
2850,765788  	95,547740 
2852,202666  	95,457579 
2853,639544  	95,336545 
2855,076421  	95,284109 
2856,513299  	95,249363 
2857,950177  	95,185262 
2859,387055  	95,140371 
2860,823933  	95,106795 
2862,260811  	95,092230 
2863,697689  	95,084314 
2865,134567  	95,039257 
2866,571445  	94,993778 
2868,008323  	94,961763 
2869,445201  	94,936782 
2870,882079  	94,920524 
2872,318956  	94,884680 
2873,755834  	94,852314 
2875,192712  	94,807177 
2876,629590  	94,727212 
2878,066468  	94,699829 
2879,503346  	94,705125 
2880,940224  	94,676344 
2882,377102  	94,649454 
2883,813980  	94,616230 
2885,250858  	94,584795 
2886,687736  	94,566168 
2888,124614  	94,509804 
2889,561491  	94,461226 
2890,998369  	94,462487 
2892,435247  	94,470320 
2893,872125  	94,454137 
2895,309003  	94,383053 
2896,745881  	94,302578 
2898,182759  	94,264705 
2899,619637  	94,222031 
2901,056515  	94,185870 
2902,493393  	94,170249 
2903,930271  	94,132180 
2905,367149  	94,092121 
2906,804026  	94,067333 
2908,240904  	94,045861 
2909,677782  	94,011509 
2911,114660  	93,956598 
2912,551538  	93,925675 
2913,988416  	93,906312 
2915,425294  	93,869825 
2916,862172  	93,840365 
2918,299050  	93,776910 
2919,735928  	93,682434 
2921,172806  	93,601981 
2922,609684  	93,510684 
2924,046561  	93,447947 
2925,483439  	93,408920 
2926,920317  	93,320280 
2928,357195  	93,243618 
2929,794073  	93,209871 
2931,230951  	93,181563 
2932,667829  	93,178958 
2934,104707  	93,179583 
2935,541585  	93,154738 
2936,978463  	93,122038 
2938,415341  	93,104791 
2939,852219  	93,110178 
2941,289096  	93,097655 
2942,725974  	93,074609 
2944,162852  	93,061552 
2945,599730  	93,021551 
2947,036608  	92,978445 
2948,473486  	92,938043 
2949,910364  	92,877487 
2951,347242  	92,832970 
2952,784120  	92,782686 
2954,220998  	92,736310 
2955,657876  	92,722173 
2957,094754  	92,652040 
2958,531631  	92,561081 
2959,968509  	92,533831 
2961,405387  	92,501354 
2962,842265  	92,453860 
2964,279143  	92,421627 
2965,716021  	92,392218 
2967,152899  	92,378419 
2968,589777  	92,369914 
2970,026655  	92,356454 
2971,463533  	92,315650 
2972,900411  	92,261333 
2974,337289  	92,272630 
2975,774166  	92,283065 
2977,211044  	92,226079 
2978,647922  	92,187565 
2980,084800  	92,175791 
2981,521678  	92,175438 
2982,958556  	92,188863 
2984,395434  	92,171505 
2985,832312  	92,149465 
2987,269190  	92,130624 
2988,706068  	92,104291 
2990,142946  	92,113165 
2991,579824  	92,114133 
2993,016701  	92,073600 
2994,453579  	92,026773 
2995,890457  	91,996581 
2997,327335  	92,002557 
2998,764213  	91,971132 
3000,201091  	91,887720 
3001,637969  	91,865489 
3003,074847  	91,864259 
3004,511725  	91,810128 
3005,948603  	91,727470 
3007,385481  	91,644332 
3008,822359  	91,621236 
3010,259236  	91,608713 
3011,696114  	91,528054 
3013,132992  	91,452732 
3014,569870  	91,404429 
3016,006748  	91,379541 
3017,443626  	91,369260 
3018,880504  	91,308647 
3020,317382  	91,268776 
3021,754260  	91,267513 
3023,191138  	91,215654 
3024,628016  	91,156820 
3026,064894  	91,104378 
3027,501771  	91,057133 
3028,938649  	91,037153 
3030,375527  	90,976164 
3031,812405  	90,907046 
3033,249283  	90,857172 
3034,686161  	90,788746 
3036,123039  	90,763292 
3037,559917  	90,720636 
3038,996795  	90,635286 
3040,433673  	90,619846 
3041,870551  	90,598170 
3043,307429  	90,547442 
3044,744306  	90,531961 
3046,181184  	90,478838 
3047,618062  	90,411810 
3049,054940  	90,353889 
3050,491818  	90,275434 
3051,928696  	90,235432 
3053,365574  	90,198689 
3054,802452  	90,147829 
3056,239330  	90,116014 
3057,676208  	90,056877 
3059,113086  	90,009548 
3060,549964  	89,980110 
3061,986842  	89,933569 
3063,423719  	89,902811 
3064,860597  	89,832302 
3066,297475  	89,762528 
3067,734353  	89,759086 
3069,171231  	89,717943 
3070,608109  	89,669502 
3072,044987  	89,621918 
3073,481865  	89,513731 
3074,918743  	89,467187 
3076,355621  	89,472270 
3077,792499  	89,433868 
3079,229377  	89,377654 
3080,666254  	89,307235 
3082,103132  	89,299181 
3083,540010  	89,322531 
3084,976888  	89,253634 
3086,413766  	89,193465 
3087,850644  	89,152831 
3089,287522  	89,073491 
3090,724400  	89,031503 
3092,161278  	88,986608 
3093,598156  	88,935703 
3095,035034  	88,919366 
3096,471912  	88,873493 
3097,908789  	88,818525 
3099,345667  	88,752197 
3100,782545  	88,699687 
3102,219423  	88,732292 
3103,656301  	88,713843 
3105,093179  	88,615320 
3106,530057  	88,534139 
3107,966935  	88,458573 
3109,403813  	88,446407 
3110,840691  	88,440292 
3112,277569  	88,341256 
3113,714447  	88,273322 
3115,151324  	88,248623 
3116,588202  	88,201319 
3118,025080  	88,146070 
3119,461958  	88,091675 
3120,898836  	88,088095 
3122,335714  	88,050649 
3123,772592  	87,934928 
3125,209470  	87,894188 
3126,646348  	87,878660 
3128,083226  	87,827266 
3129,520104  	87,790338 
3130,956982  	87,717423 
3132,393859  	87,673279 
3133,830737  	87,667254 
3135,267615  	87,606562 
3136,704493  	87,568525 
3138,141371  	87,524235 
3139,578249  	87,436377 
3141,015127  	87,394242 
3142,452005  	87,344530 
3143,888883  	87,276794 
3145,325761  	87,219841 
3146,762639  	87,152355 
3148,199517  	87,129854 
3149,636394  	87,098501 
3151,073272  	87,023513 
3152,510150  	86,965191 
3153,947028  	86,898631 
3155,383906  	86,879454 
3156,820784  	86,874827 
3158,257662  	86,793466 
3159,694540  	86,754362 
3161,131418  	86,721431 
3162,568296  	86,627767 
3164,005174  	86,568214 
3165,442052  	86,497936 
3166,878929  	86,450866 
3168,315807  	86,447340 
3169,752685  	86,360979 
3171,189563  	86,286444 
3172,626441  	86,264468 
3174,063319  	86,211733 
3175,500197  	86,178651 
3176,937075  	86,146609 
3178,373953  	86,111300 
3179,810831  	86,078703 
3181,247709  	86,003828 
3182,684587  	85,945963 
3184,121464  	85,883801 
3185,558342  	85,847508 
3186,995220  	85,894070 
3188,432098  	85,851987 
3189,868976  	85,764288 
3191,305854  	85,719209 
3192,742732  	85,625399 
3194,179610  	85,598742 
3195,616488  	85,589006 
3197,053366  	85,499776 
3198,490244  	85,506262 
3199,927122  	85,494177 
3201,363999  	85,405677 
3202,800877  	85,400604 
3204,237755  	85,365738 
3205,674633  	85,299225 
3207,111511  	85,271476 
3208,548389  	85,247104 
3209,985267  	85,281100 
3211,422145  	85,246628 
3212,859023  	85,130519 
3214,295901  	85,098612 
3215,732779  	85,062201 
3217,169657  	85,048851 
3218,606534  	85,080176 
3220,043412  	85,015932 
3221,480290  	84,967596 
3222,917168  	84,954673 
3224,354046  	84,906280 
3225,790924  	84,882506 
3227,227802  	84,823852 
3228,664680  	84,785216 
3230,101558  	84,809740 
3231,538436  	84,809268 
3232,975314  	84,859341 
3234,412192  	84,863448 
3235,849069  	84,759679 
3237,285947  	84,732050 
3238,722825  	84,710356 
3240,159703  	84,677102 
3241,596581  	84,708471 
3243,033459  	84,682799 
3244,470337  	84,642582 
3245,907215  	84,627460 
3247,344093  	84,594891 
3248,780971  	84,594473 
3250,217849  	84,558563 
3251,654727  	84,533474 
3253,091604  	84,584439 
3254,528482  	84,579541 
3255,965360  	84,550089 
3257,402238  	84,530695 
3258,839116  	84,510229 
3260,275994  	84,526517 
3261,712872  	84,467445 
3263,149750  	84,393464 
3264,586628  	84,399181 
3266,023506  	84,385563 
3267,460384  	84,400890 
3268,897262  	84,377217 
3270,334139  	84,292269 
3271,771017  	84,350875 
3273,207895  	84,397930 
3274,644773  	84,339719 
3276,081651  	84,351361 
3277,518529  	84,380839 
3278,955407  	84,406243 
3280,392285  	84,374643 
3281,829163  	84,261602 
3283,266041  	84,277912 
3284,702919  	84,330198 
3286,139797  	84,287139 
3287,576674  	84,278725 
3289,013552  	84,276686 
3290,450430  	84,252793 
3291,887308  	84,197512 
3293,324186  	84,143717 
3294,761064  	84,205101 
3296,197942  	84,214474 
3297,634820  	84,160322 
3299,071698  	84,175095 
3300,508576  	84,102187 
3301,945454  	84,053114 
3303,382332  	84,119947 
3304,819210  	84,088993 
3306,256087  	84,058748 
3307,692965  	84,073312 
3309,129843  	84,041312 
3310,566721  	84,035418 
3312,003599  	83,984526 
3313,440477  	83,926166 
3314,877355  	83,936892 
3316,314233  	83,914118 
3317,751111  	83,939559 
3319,187989  	83,987684 
3320,624867  	83,955208 
3322,061745  	83,940756 
3323,498622  	83,903438 
3324,935500  	83,845458 
3326,372378  	83,838729 
3327,809256  	83,837986 
3329,246134  	83,873879 
3330,683012  	83,866516 
3332,119890  	83,825597 
3333,556768  	83,889539 
3334,993646  	83,893350 
3336,430524  	83,841114 
3337,867402  	83,861874 
3339,304280  	83,815584 
3340,741157  	83,754743 
3342,178035  	83,766522 
3343,614913  	83,792483 
3345,051791  	83,812761 
3346,488669  	83,772596 
3347,925547  	83,786226 
3349,362425  	83,852781 
3350,799303  	83,832794 
3352,236181  	83,891678 
3353,673059  	83,939985 
3355,109937  	83,849213 
3356,546815  	83,867105 
3357,983692  	83,897835 
3359,420570  	83,850294 
3360,857448  	83,860934 
3362,294326  	83,853479 
3363,731204  	83,898497 
3365,168082  	83,958320 
3366,604960  	83,904074 
3368,041838  	83,911390 
3369,478716  	83,903153 
3370,915594  	83,884774 
3372,352472  	84,041906 
3373,789350  	84,104242 
3375,226227  	84,040138 
3376,663105  	84,084913 
3378,099983  	84,151768 
3379,536861  	84,187066 
3380,973739  	84,181805 
3382,410617  	84,184613 
3383,847495  	84,224888 
3385,284373  	84,183803 
3386,721251  	84,230119 
3388,158129  	84,381505 
3389,595007  	84,402251 
3391,031885  	84,407733 
3392,468762  	84,412058 
3393,905640  	84,390910 
3395,342518  	84,463865 
3396,779396  	84,500481 
3398,216274  	84,552773 
3399,653152  	84,651216 
3401,090030  	84,636579 
3402,526908  	84,701600 
3403,963786  	84,843009 
3405,400664  	84,897372 
3406,837542  	84,954437 
3408,274420  	84,954681 
3409,711297  	84,980301 
3411,148175  	85,098258 
3412,585053  	85,139436 
3414,021931  	85,223775 
3415,458809  	85,303153 
3416,895687  	85,266716 
3418,332565  	85,338287 
3419,769443  	85,437676 
3421,206321  	85,488490 
3422,643199  	85,574723 
3424,080077  	85,627224 
3425,516955  	85,752277 
3426,953832  	85,846356 
3428,390710  	85,805949 
3429,827588  	85,909768 
3431,264466  	86,040047 
3432,701344  	86,070094 
3434,138222  	86,147466 
3435,575100  	86,177174 
3437,011978  	86,228779 
3438,448856  	86,340231 
3439,885734  	86,399026 
3441,322612  	86,502193 
3442,759490  	86,562714 
3444,196367  	86,608961 
3445,633245  	86,735778 
3447,070123  	86,730203 
3448,507001  	86,806808 
3449,943879  	87,061500 
3451,380757  	87,134466 
3452,817635  	87,155799 
3454,254513  	87,237271 
3455,691391  	87,291547 
3457,128269  	87,412478 
3458,565147  	87,504482 
3460,002025  	87,596307 
3461,438902  	87,752381 
3462,875780  	87,786877 
3464,312658  	87,810573 
3465,749536  	87,935552 
3467,186414  	88,059991 
3468,623292  	88,172263 
3470,060170  	88,245455 
3471,497048  	88,341432 
3472,933926  	88,446754 
3474,370804  	88,508738 
3475,807682  	88,650493 
3477,244560  	88,748415 
3478,681437  	88,780967 
3480,118315  	88,926649 
3481,555193  	89,039091 
3482,992071  	89,130352 
3484,428949  	89,229702 
3485,865827  	89,204401 
3487,302705  	89,302978 
3488,739583  	89,531499 
3490,176461  	89,654668 
3491,613339  	89,792142 
3493,050217  	89,899187 
3494,487095  	89,927406 
3495,923972  	89,996048 
3497,360850  	90,111735 
3498,797728  	90,313877 
3500,234606  	90,435277 
3501,671484  	90,398126 
3503,108362  	90,457502 
3504,545240  	90,591758 
3505,982118  	90,741895 
3507,418996  	90,895116 
3508,855874  	90,930780 
3510,292752  	91,041812 
3511,729630  	91,233850 
3513,166507  	91,315142 
3514,603385  	91,419707 
3516,040263  	91,526744 
3517,477141  	91,650653 
3518,914019  	91,856994 
3520,350897  	91,922238 
3521,787775  	91,924829 
3523,224653  	92,018866 
3524,661531  	92,128101 
3526,098409  	92,286799 
3527,535287  	92,401009 
3528,972165  	92,465794 
3530,409043  	92,597342 
3531,845920  	92,704037 
3533,282798  	92,851441 
3534,719676  	92,987632 
3536,156554  	93,005075 
3537,593432  	93,150349 
3539,030310  	93,363550 
3540,467188  	93,460973 
3541,904066  	93,535561 
3543,340944  	93,596748 
3544,777822  	93,716378 
3546,214700  	93,860873 
3547,651578  	93,937812 
3549,088455  	94,088179 
3550,525333  	94,189839 
3551,962211  	94,240122 
3553,399089  	94,451270 
3554,835967  	94,621227 
3556,272845  	94,719045 
3557,709723  	94,877526 
3559,146601  	94,986775 
3560,583479  	95,088389 
3562,020357  	95,187273 
3563,457235  	95,270560 
3564,894113  	95,395194 
3566,330990  	95,394302 
3567,767868  	95,412865 
3569,204746  	95,649013 
3570,641624  	95,774481 
3572,078502  	95,912073 
3573,515380  	96,081774 
3574,952258  	96,161599 
3576,389136  	96,311263 
3577,826014  	96,484524 
3579,262892  	96,591606 
3580,699770  	96,713919 
3582,136648  	96,823578 
3583,573525  	96,962698 
3585,010403  	97,092715 
3586,447281  	97,070744 
3587,884159  	97,102716 
3589,321037  	97,251791 
3590,757915  	97,383523 
3592,194793  	97,585057 
3593,631671  	97,732556 
3595,068549  	97,778730 
3596,505427  	97,925254 
3597,942305  	98,048788 
3599,379183  	98,081020 
3600,816060  	98,179837 
3602,252938  	98,363643 
3603,689816  	98,551285 
3605,126694  	98,679798 
3606,563572  	98,731576 
3608,000450  	98,785451 
3609,437328  	98,885767 
3610,874206  	98,985102 
3612,311084  	99,056622 
3613,747962  	99,186587 
3615,184840  	99,351662 
3616,621718  	99,422219 
3618,058595  	99,445742 
3619,495473  	99,534190 
3620,932351  	99,737000 
3622,369229  	99,917968 
3623,806107  	100,038299 
3625,242985  	100,125259 
3626,679863  	100,155045 
3628,116741  	100,189847 
3629,553619  	100,333607 
3630,990497  	100,422982 
3632,427375  	100,356491 
3633,864253  	100,419372 
3635,301130  	100,586599 
3636,738008  	100,715488 
3638,174886  	100,840449 
3639,611764  	100,947370 
3641,048642  	101,047384 
3642,485520  	101,132948 
3643,922398  	101,171922 
3645,359276  	101,186068 
3646,796154  	101,172108 
3648,233032  	101,175955 
3649,669910  	101,278490 
3651,106788  	101,374293 
3652,543665  	101,523158 
3653,980543  	101,611238 
3655,417421  	101,627074 
3656,854299  	101,649803 
3658,291177  	101,740884 
3659,728055  	101,883009 
3661,164933  	102,035789 
3662,601811  	102,089614 
3664,038689  	102,171152 
3665,475567  	102,317786 
3666,912445  	102,393331 
3668,349323  	102,384894 
3669,786200  	102,337049 
3671,223078  	102,296507 
3672,659956  	102,322102 
3674,096834  	102,301149 
3675,533712  	102,293923 
3676,970590  	102,433369 
3678,407468  	102,422087 
3679,844346  	102,411028 
3681,281224  	102,476734 
3682,718102  	102,520788 
3684,154980  	102,614546 
3685,591858  	102,689910 
3687,028735  	102,692088 
3688,465613  	102,706432 
3689,902491  	102,702832 
3691,339369  	102,720017 
3692,776247  	102,736120 
3694,213125  	102,719293 
3695,650003  	102,759974 
3697,086881  	102,812915 
3698,523759  	102,820500 
3699,960637  	102,844381 
3701,397515  	102,850039 
3702,834393  	102,871565 
3704,271270  	102,941379 
3705,708148  	102,961047 
3707,145026  	103,001623 
3708,581904  	103,005619 
3710,018782  	102,880845 
3711,455660  	102,845191 
3712,892538  	102,933092 
3714,329416  	102,935121 
3715,766294  	102,965033 
3717,203172  	103,009701 
3718,640050  	102,991802 
3720,076928  	103,035942 
3721,513805  	103,135782 
3722,950683  	103,171802 
3724,387561  	103,143930 
3725,824439  	103,089611 
3727,261317  	103,165417 
3728,698195  	103,346415 
3730,135073  	103,347120 
3731,571951  	103,283588 
3733,008829  	103,264462 
3734,445707  	103,162039 
3735,882585  	103,095459 
3737,319463  	103,226808 
3738,756340  	103,226623 
3740,193218  	103,133684 
3741,630096  	103,095266 
3743,066974  	103,115678 
3744,503852  	103,209815 
3745,940730  	103,237345 
3747,377608  	103,063670 
3748,814486  	102,969121 
3750,251364  	102,908685 
3751,688242  	102,848466 
3753,125120  	103,007493 
3754,561998  	103,109004 
3755,998875  	103,002433 
3757,435753  	102,911482 
3758,872631  	102,883818 
3760,309509  	102,937132 
3761,746387  	103,097563 
3763,183265  	103,148927 
3764,620143  	103,141525 
3766,057021  	103,120404 
3767,493899  	103,053205 
3768,930777  	103,082630 
3770,367655  	103,143990 
3771,804533  	103,094307 
3773,241411  	103,119107 
3774,678288  	103,192858 
3776,115166  	103,175783 
3777,552044  	103,162137 
3778,988922  	103,243298 
3780,425800  	103,336429 
3781,862678  	103,283575 
3783,299556  	103,156544 
3784,736434  	103,180165 
3786,173312  	103,327514 
3787,610190  	103,376107 
3789,047068  	103,366329 
3790,483946  	103,365201 
3791,920823  	103,399193 
3793,357701  	103,470458 
3794,794579  	103,482712 
3796,231457  	103,426226 
3797,668335  	103,396201 
3799,105213  	103,426400 
3800,542091  	103,513642 
3801,978969  	103,601963 
3803,415847  	103,453304 
3804,852725  	103,204037 
3806,289603  	103,174697 
3807,726481  	103,312922 
3809,163358  	103,318184 
3810,600236  	103,331105 
3812,037114  	103,444775 
3813,473992  	103,385753 
3814,910870  	103,320361 
3816,347748  	103,503413 
3817,784626  	103,607627 
3819,221504  	103,418299 
3820,658382  	103,234591 
3822,095260  	103,126060 
3823,532138  	103,110741 
3824,969016  	103,062050 
3826,405893  	103,126878 
3827,842771  	103,265129 
3829,279649  	103,307475 
3830,716527  	103,350719 
3832,153405  	103,507530 
3833,590283  	103,582376 
3835,027161  	103,395472 
3836,464039  	103,209881 
3837,900917  	103,229282 
3839,337795  	103,182976 
3840,774673  	103,103096 
3842,211551  	103,147277 
3843,648428  	103,125860 
3845,085306  	103,180572 
3846,522184  	103,399560 
3847,959062  	103,470112 
3849,395940  	103,410176 
3850,832818  	103,321358 
3852,269696  	103,161130 
3853,706574  	103,110156 
3855,143452  	103,402782 
3856,580330  	103,316045 
3858,017208  	103,183236 
3859,454086  	103,141247 
3860,890963  	103,101335 
3862,327841  	103,116460 
3863,764719  	103,188329 
3865,201597  	103,303494 
3866,638475  	103,339569 
3868,075353  	103,183574 
3869,512231  	103,085220 
3870,949109  	103,166960 
3872,385987  	103,145728 
3873,822865  	103,005951 
3875,259743  	102,996750 
3876,696621  	103,118106 
3878,133498  	103,165893 
3879,570376  	103,195846 
3881,007254  	103,375172 
3882,444132  	103,525799 
3883,881010  	103,395343 
3885,317888  	103,307662 
3886,754766  	103,430841 
3888,191644  	103,427342 
3889,628522  	103,294374 
3891,065400  	103,194015 
3892,502278  	103,173584 
3893,939156  	103,295198 
3895,376033  	103,432640 
3896,812911  	103,436212 
3898,249789  	103,343536 
3899,686667  	103,277634 
3901,123545  	103,251241 
3902,560423  	103,188500 
3903,997301  	103,089459 
3905,434179  	103,043821 
3906,871057  	103,084888 
3908,307935  	103,198248 
3909,744813  	103,350768 
3911,181691  	103,387913 
3912,618568  	103,303685 
3914,055446  	103,293932 
3915,492324  	103,348162 
3916,929202  	103,334354 
3918,366080  	103,323810 
3919,802958  	103,366304 
3921,239836  	103,403777 
3922,676714  	103,419208 
3924,113592  	103,368437 
3925,550470  	103,306368 
3926,987348  	103,336606 
3928,424226  	103,353610 
3929,861103  	103,330051 
3931,297981  	103,302747 
3932,734859  	103,264980 
3934,171737  	103,346428 
3935,608615  	103,500600 
3937,045493  	103,483538 
3938,482371  	103,358628 
3939,919249  	103,337518 
3941,356127  	103,359459 
3942,793005  	103,314543 
3944,229883  	103,293173 
3945,666761  	103,353604 
3947,103638  	103,393214 
3948,540516  	103,385004 
3949,977394  	103,390720 
3951,414272  	103,395680 
3952,851150  	103,402365 
3954,288028  	103,396038 
3955,724906  	103,391088 
3957,161784  	103,410149 
3958,598662  	103,412585 
3960,035540  	103,373097 
3961,472418  	103,392010 
3962,909296  	103,434310 
3964,346173  	103,418387 
3965,783051  	103,402037 
3967,219929  	103,413846 
3968,656807  	103,453402 
3970,093685  	103,480797 
3971,530563  	103,474838 
3972,967441  	103,488444 
3974,404319  	103,469742 
3975,841197  	103,423325 
3977,278075  	103,445620 
3978,714953  	103,472576 
3980,151831  	103,473953 
3981,588708  	103,475266 
3983,025586  	103,454035 
3984,462464  	103,467086 
3985,899342  	103,506106 
3987,336220  	103,534448 
3988,773098  	103,554526 
3990,209976  	103,493048 
3991,646854  	103,450722 
3993,083732  	103,510735 
3994,520610  	103,491061 
3995,957488  	103,424993 
3997,394366  	103,437265 
3998,831244  	103,470388 
4000,268121  	103,535237 